Time,Rotor Angle,Rotor Speed,EQ' Volts, ED' Volts,Term Volts,Elec Power Re,Elec Pwr Im,Fld Volts,Mech Power, Satn Factor, Air Gap Volts,Elec MW,Elec MVAr
0.0,-9.253608,0.0,0.918908,-0.0,0.99119407,-1.0308784E-4,-0.23883153,0.918908,0.0,1.0,0.991194,-0.0075254124,-17.434702
0.02,-9.25368,3.6659299E-7,0.918908,0.0,0.9911931,-1.115616E-4,-0.23882832,0.918908,0.0,1.0,0.9911931,-0.008143997,-17.434467
0.04,-9.253968,6.987793E-7,0.918908,0.0,0.9911896,-1.4495142E-4,-0.23881601,0.918908,0.0,1.0,0.9911896,-0.010581454,-17.433569
0.06,-9.254427,1.1365925E-6,0.918908,0.0,0.99118376,-1.9874616E-4,-0.2387954,0.918908,0.0,1.0,0.9911838,-0.01450847,-17.432064
0.08,-9.255021,1.7343914E-6,0.918908,0.0,0.9911759,-2.7042927E-4,-0.23876749,0.918908,0.0,1.0,0.99117595,-0.019741336,-17.430027
0.1,-9.255704,2.538196E-6,0.918908,0.0,0.81141305,-0.077176854,0.28954405,0.918908,0.0,1.0,0.8110218,-5.63391,21.136715
0.12,-9.285762,2.2227103E-4,0.918908,0.0,0.811299,-0.07889553,0.28975755,0.918908,0.0,1.0,0.81089,-5.7593737,21.152302
0.14,-9.4319105,4.4845737E-4,0.918908,0.0,0.8107696,-0.08712982,0.29072225,0.918908,0.0,1.0,0.8102704,-6.3604765,21.222725
0.16,-9.6876545,6.99351E-4,0.918908,0.0,0.8098205,-0.10150411,0.29239327,0.918908,0.0,1.0,0.8091422,-7.4098,21.34471
0.18,-10.040425,9.91625E-4,0.918908,0.0,0.8084426,-0.12129797,0.29471055,0.918908,0.0,1.0,0.8074721,-8.854752,21.51387
0.2,-10.472268,0.001339435,0.918908,0.0,0.8066279,-0.14548363,0.29760712,0.918908,0.0,1.0,0.80522835,-10.620305,21.72532
0.22,-10.960868,0.0017536212,0.918908,0.0,0.8043739,-0.17278539,0.30102804,0.918908,0.0,1.0,0.8023935,-12.613333,21.975048
0.24,-11.480872,0.0022410979,0.918908,0.0,0.80168873,-0.20175368,0.30494246,0.918908,0.0,1.0,0.79897827,-14.728019,22.2608
0.26,-12.005388,0.0028044777,0.918908,0.0,0.7985944,-0.230855,0.30935454,0.918908,0.0,1.0,0.79503,-16.852415,22.582882
0.28,-12.507613,0.0034419599,0.918908,0.0,0.7951297,-0.2585633,0.31430197,0.918908,0.0,1.0,0.7906362,-18.875122,22.944044
0.3,-12.96247,0.0041474774,0.918908,0.0,0.79134995,-0.28344926,0.31984684,0.918908,0.0,1.0,0.7859206,-20.691795,23.34882
0.32,-13.34811,0.004911094,0.918908,0.0,0.78732485,-0.30426043,0.3260584,0.918908,0.0,1.0,0.78103346,-22.211012,23.802261
0.34,-13.647265,0.005719611,0.918908,0.0,0.7831356,-0.3199824,0.3329896,0.918908,0.0,1.0,0.7761367,-23.358715,24.30824
0.36,-13.848305,0.006557324,0.918908,0.0,0.7788696,-0.32988262,0.34065482,0.918908,0.0,1.0,0.7713877,-24.081432,24.867802
0.38,-13.946022,0.007406882,0.918908,0.0,0.7746154,-0.33353323,0.34901106,0.918908,0.0,1.0,0.76692367,-24.347925,25.477808
0.4,-13.942034,0.008250187,0.918908,0.0,0.93602955,-0.45020157,-0.08898775,0.918908,0.0,1.0,0.92441785,-32.864716,-6.496106
0.42,-13.784227,0.00941919,0.918908,0.0,0.92895824,-0.45117474,-0.06711813,0.918908,0.0,1.0,0.9172061,-32.935757,-4.8996234
0.44,-13.305529,0.010558383,0.918908,0.0,0.9242257,-0.43024543,-0.049267944,0.918908,0.0,1.0,0.91348946,-31.407917,-3.59656
0.46,-12.535332,0.011607136,0.918908,0.0,0.922171,-0.38938665,-0.03699797,0.918908,0.0,1.0,0.9133666,-28.425226,-2.700852
0.48,-11.520996,0.012511699,0.918908,0.0,0.9229059,-0.33109245,-0.031755395,0.918908,0.0,1.0,0.91655403,-24.169748,-2.3181438
0.5,-10.325142,0.0132265035,0.918908,0.0,0.92633003,-0.25829282,-0.034698386,0.918908,0.0,1.0,0.9224838,-18.855375,-2.532982
0.52,-9.022259,0.013715285,0.918908,0.0,0.93214977,-0.17437379,-0.046474013,0.918908,0.0,1.0,0.9304097,-12.729287,-3.392603
0.54,-7.694912,0.013952301,0.918908,0.0,0.9398973,-0.08325309,-0.06696333,0.918908,0.0,1.0,0.9395042,-6.077476,-4.8883233
0.56,-6.4293785,0.013923745,0.918908,0.0,0.9489502,0.01056253,-0.095047586,0.918908,0.0,1.0,0.9489439,0.7710647,-6.9384737
0.58,-5.3108444,0.01362926,0.918908,0.0,0.9585662,0.10199212,-0.12848856,0.918908,0.0,1.0,0.95798767,7.445425,-9.379664
0.6,-4.4182816,0.013083304,0.918908,0.0,0.96794605,0.18552613,-0.16403092,0.918908,0.0,1.0,0.9660491,13.543407,-11.974257
0.62,-3.8191986,0.012315963,0.918908,0.0,0.9763267,0.2555625,-0.1978048,0.918908,0.0,1.0,0.97275513,18.656063,-14.43975
0.64,-3.5648346,0.011372644,0.918908,0.0,0.98309493,0.30692005,-0.22602168,0.918908,0.0,1.0,0.9779751,22.405163,-16.499582
0.66,-3.6859818,0.010312224,0.918908,0.0,0.9878911,0.33547455,-0.24581313,0.918908,0.0,1.0,0.98180103,24.489643,-17.944359
0.68,-4.189888,0.009203386,0.918908,0.0,0.9906658,0.33876935,-0.25592947,0.918908,0.0,1.0,0.98447263,24.730162,-18.682852
0.7,-5.058708,0.008119393,0.918908,0.0,0.9916624,0.31642666,-0.25701958,0.918908,0.0,1.0,0.9862669,23.099146,-18.76243
0.72,-6.2495804,0.0071319714,0.918908,0.0,0.99133426,0.27025452,-0.25137928,0.918908,0.0,1.0,0.98740005,19.72858,-18.350687
0.74,-7.6963654,0.006305205,0.918908,0.0,0.9902233,0.20403048,-0.24226356,0.918908,0.0,1.0,0.9879803,14.894225,-17.68524
0.76,-9.313293,0.0056903367,0.918908,0.0,0.98885125,0.123042904,-0.2330453,0.918908,0.0,1.0,0.988035,8.982132,-17.012306
0.78,-10.9999695,0.00532205,0.918908,0.0,0.98764443,0.033511713,-0.22647639,0.918908,0.0,1.0,0.9875839,2.446355,-16.532776
0.8,-12.647774,0.0052164877,0.918908,0.0,0.98689866,-0.058016293,-0.22422309,0.918908,0.0,1.0,0.98671687,-4.2351894,-16.368286
0.82,-14.1469345,0.0053709913,0.918908,0.0,0.9867674,-0.14520791,-0.22669476,0.918908,0.0,1.0,0.98562795,-10.600178,-16.548717
0.84,-15.393829,0.0057653,0.918908,0.0,0.98725986,-0.22236301,-0.2331234,0.918908,0.0,1.0,0.9845872,-16.2325,-17.01801
0.86,-16.298042,0.00636382,0.918908,0.0,0.98824453,-0.28467697,-0.24182095,0.918908,0.0,1.0,0.9838646,-20.781418,-17.65293
0.88,-16.78846,0.0071184984,0.918908,0.0,0.989461,-0.3283562,-0.25053808,0.918908,0.0,1.0,0.9836368,-23.970003,-18.28928
0.9,-16.818321,0.007971907,0.918908,0.0,0.9905558,-0.35064334,-0.2569002,0.918908,0.0,1.0,0.9839187,-25.596964,-18.753714
0.92,-16.368965,0.008860325,0.918908,0.0,0.99114954,-0.34983236,-0.2588971,0.918908,0.0,1.0,0.9845472,-25.537762,-18.899488
0.94,-15.452026,0.009716876,0.918908,0.0,0.990925,-0.32535526,-0.2553665,0.918908,0.0,1.0,0.98521554,-23.750935,-18.641754
0.96,-14.109543,0.010474915,0.918908,0.0,0.98971206,-0.27795365,-0.24635498,0.918908,0.0,1.0,0.98554325,-20.290617,-17.983913
0.98,-12.412598,0.011071895,0.918908,0.0,0.98753685,-0.20986338,-0.23320065,0.918908,0.0,1.0,0.9851572,-15.320026,-17.023647
1.0,-10.457642,0.011453661,0.918908,0.0,0.9846124,-0.12491204,-0.21823244,0.918908,0.0,1.0,0.9837675,-9.118579,-15.930968
1.02,-8.361069,0.011578828,0.918908,0.0,0.9812792,-0.02841682,-0.20414636,0.918908,0.0,1.0,0.9812354,-2.0744278,-14.902684
1.04,-6.2520294,0.011422643,0.918908,0.0,0.97792006,0.07314675,-0.19325699,0.918908,0.0,1.0,0.97762847,5.339713,-14.10776
1.06,-4.2641907,0.010979707,0.918908,0.0,0.97488,0.1726572,-0.18688218,0.918908,0.0,1.0,0.97324896,12.603976,-13.6424
1.08,-2.5269012,0.010265108,0.918908,0.0,0.97241193,0.26295644,-0.18505636,0.918908,0.0,1.0,0.968615,19.19582,-13.509114
1.1,-1.1564026,0.009313802,0.918908,0.0,0.97065014,0.33744034,-0.18662292,0.918908,0.0,1.0,0.9643781,24.633144,-13.623473
1.12,-0.2477417,0.008178374,0.918908,0.0,0.9696051,0.39055678,-0.1896457,0.918908,0.0,1.0,0.9611847,28.510645,-13.844135
1.14,0.13154602,0.006925509,0.918908,0.0,0.96917063,0.4181685,-0.19197686,0.918908,0.0,1.0,0.959507,30.526299,-14.014311
1.16,-0.053390503,0.0056315726,0.918908,0.0,0.9691366,0.41779628,-0.19180942,0.918908,0.0,1.0,0.9594899,30.499128,-14.002088
1.18,-0.80223083,0.0043776296,0.918908,0.0,0.9692102,0.38876995,-0.1880772,0.918908,0.0,1.0,0.9608636,28.380207,-13.729635
1.2,-2.0791168,0.0032441593,0.918908,0.0,0.96905106,0.33230072,-0.18063033,0.918908,0.0,1.0,0.96295923,24.257954,-13.186014
1.22,-3.8145905,0.002305704,0.918908,0.0,0.96832657,0.25146273,-0.1701901,0.918908,0.0,1.0,0.96484023,18.35678,-12.423877
1.24,-5.909851,0.0016257282,0.918908,0.0,0.9667859,0.15103988,-0.1581467,0.918908,0.0,1.0,0.96552753,11.025911,-11.544708
1.26,-8.243134,0.0012521177,0.918908,0.0,0.96433944,0.037187472,-0.1462719,0.918908,0.0,1.0,0.964263,2.7146854,-10.677849
1.28,-10.677719,0.0012138339,0.918908,0.0,0.9611155,-0.08308019,-0.13639341,0.918908,0.0,1.0,0.9607327,-6.0648537,-9.956719
1.3,-13.070465,0.0015191707,0.918908,0.0,0.9574702,-0.20250523,-0.13007364,0.918908,0.0,1.0,0.95518494,-14.782882,-9.495376
1.32,-15.280792,0.0021557934,0.918908,0.0,0.9539351,-0.31417435,-0.12831825,0.918908,0.0,1.0,0.9484048,-22.934729,-9.367232
1.34,-17.178741,0.0030923588,0.918908,0.0,0.9511148,-0.4119588,-0.13138172,0.918908,0.0,1.0,0.9415576,-30.072994,-9.590865
1.36,-18.651978,0.0042812247,0.918908,0.0,0.949563,-0.49073902,-0.1387282,0.918908,0.0,1.0,0.93594956,-35.823948,-10.127159
1.38,-19.611435,0.005661602,0.918908,0.0,0.94967073,-0.546441,-0.14916818,0.918908,0.0,1.0,0.9327639,-39.890194,-10.889277
1.4,-19.995499,0.0071626888,0.918908,0.0,0.9515944,-0.5759782,-0.16115633,0.918908,0.0,1.0,0.9328302,-42.04641,-11.764412
1.42,-19.773209,0.008706581,0.918908,0.0,0.95522887,-0.5772227,-0.17315178,0.918908,0.0,1.0,0.9364558,-42.137257,-12.6400795
1.44,-18.946594,0.010211145,0.918908,0.0,0.9602262,-0.54909056,-0.18395849,0.918908,0.0,1.0,0.9433444,-40.08361,-13.428969
1.46,-17.551346,0.011593196,0.918908,0.0,0.96604747,-0.49178883,-0.19295031,0.918908,0.0,1.0,0.95261186,-35.900585,-14.085373
1.48,-15.65686,0.012772415,0.918908,0.0,0.9720393,-0.40713748,-0.20012043,0.918908,0.0,1.0,0.9629085,-29.721037,-14.608791
1.5,-13.363983,0.013676129,0.918908,0.0,0.97752297,-0.2988519,-0.2059432,0.918908,0.0,1.0,0.97264165,-21.816189,-15.033854
1.52,-10.800613,0.014244692,0.918908,0.0,0.9818898,-0.17261416,-0.21109487,0.918908,0.0,1.0,0.98027134,-12.600834,-15.409925
1.54,-8.115036,0.014436778,0.918908,0.0,0.9846942,-0.035803866,-0.2161435,0.918908,0.0,1.0,0.98462486,-2.6136823,-15.778476
1.56,-5.4671173,0.014233571,0.918908,0.0,0.98573,0.10311712,-0.22132294,0.918908,0.0,1.0,0.985155,7.52755,-16.156574
1.58,-3.018097,0.013640934,0.918908,0.0,0.9850768,0.23545834,-0.22647233,0.918908,0.0,1.0,0.9820729,17.18846,-16.53248
1.6,-0.91999817,0.012689077,0.918908,0.0,0.98309743,0.3531699,-0.23113047,0.918908,0.0,1.0,0.9763126,25.781403,-16.872524
1.62,0.6943512,0.0114298565,0.918908,0.0,0.9803818,0.44951275,-0.23472713,0.918908,0.0,1.0,0.9693356,32.81443,-17.13508
1.64,1.7194824,0.009932417,0.918908,0.0,0.97764134,0.519406,-0.23679036,0.918908,0.0,1.0,0.9628228,37.91664,-17.285696
1.66,2.084015,0.008278165,0.918908,0.0,0.97558063,0.5594552,-0.23713323,0.918908,0.0,1.0,0.9583304,40.84023,-17.310726
1.68,1.7546082,0.0065558893,0.918908,0.0,0.9747734,0.56778216,-0.2360034,0.918908,0.0,1.0,0.9569862,41.448097,-17.228249
1.7,0.73828125,0.004857486,0.918908,0.0,0.9755708,0.5438449,-0.23416783,0.918908,0.0,1.0,0.95927775,39.700676,-17.094252
1.72,-0.9168091,0.0032741707,0.918908,0.0,0.9780483,0.48839685,-0.2328862,0.918908,0.0,1.0,0.96496344,35.65297,-17.000692
1.74,-3.123108,0.0018927264,0.918908,0.0,0.98199904,0.4036341,-0.233723,0.918908,0.0,1.0,0.9731172,29.46529,-17.061779
1.76,-5.7565002,7.912638E-4,0.918908,0.0,0.9869615,0.29349062,-0.23816736,0.918908,0.0,1.0,0.9822993,21.424814,-17.386217
1.78,-8.661896,3.4197E-5,0.918908,0.0,0.9922808,0.1638756,-0.2471093,0.918908,0.0,1.0,0.99083745,11.962918,-18.038979
1.8,-11.661865,-3.3324002E-4,0.918908,0.0,0.9971948,0.022669453,-0.26030797,0.918908,0.0,1.0,0.9971673,1.65487,-19.002481
1.82,-14.566803,-2.901115E-4,0.918908,0.0,1.0009404,-0.12071309,-0.27607596,0.918908,0.0,1.0,1.0001643,-8.812056,-20.153545
1.84,-17.188904,1.5675832E-4,0.918908,0.0,1.0028664,-0.256197,-0.2913659,0.918908,0.0,1.0,0.99937236,-18.702381,-21.26971
1.86,-19.35556,9.7209495E-4,0.918908,0.0,1.0025418,-0.37419683,-0.30237243,0.918908,0.0,1.0,0.9950707,-27.316368,-22.073187
1.88,-20.92331,0.0020948015,0.918908,0.0,0.999832,-0.4667268,-0.3054748,0.918908,0.0,1.0,0.98815286,-34.071056,-22.29966
1.9,-21.787994,0.0034435242,0.918908,0.0,0.9949258,-0.52818644,-0.29822826,0.918908,0.0,1.0,0.9798684,-38.55761,-21.770664
1.92,-21.892426,0.004924023,0.918908,0.0,0.9883012,-0.5556503,-0.28003725,0.918908,0.0,1.0,0.9715099,-40.562473,-20.44272
1.94,-21.228271,0.0064369384,0.918908,0.0,0.9806335,-0.5487351,-0.2523153,0.918908,0.0,1.0,0.96413076,-40.05766,-18.419018
1.96,-19.835175,0.007884859,0.918908,0.0,0.97267234,-0.5092212,-0.21815713,0.918908,0.0,1.0,0.95835966,-37.17315,-15.92547
1.98,-17.79599,0.009178147,0.918908,0.0,0.9651227,-0.4406431,-0.18170124,0.918908,0.0,1.0,0.9543409,-32.166946,-13.264191
2.0,-15.23056,0.010239581,0.918908,0.0,0.95855594,-0.34798357,-0.14737666,0.918908,0.0,1.0,0.9517997,-25.4028,-10.758496
2.02,-12.287811,0.011008134,0.918908,0.0,0.95336264,-0.23745033,-0.11916256,0.918908,0.0,1.0,0.9502056,-17.333874,-8.698867
2.04,-9.137054,0.011442097,0.918908,0.0,0.9497439,-0.11627147,-0.09994536,0.918908,0.0,1.0,0.94898504,-8.487818,-7.296011
2.06,-5.95874,0.011521497,0.918908,0.0,0.9477258,0.007628691,-0.09104792,0.918908,0.0,1.0,0.94772255,0.5568944,-6.646498
2.08,-2.9345398,0.011249463,0.918908,0.0,0.94718313,0.12610398,-0.09201449,0.918908,0.0,1.0,0.94628805,9.20559,-6.7170577
2.1,-0.23709106,0.01065211,0.918908,0.0,0.9478667,0.23140027,-0.10073258,0.918908,0.0,1.0,0.9448513,16.89222,-7.3534784
2.12,1.980072,0.0097766295,0.918908,0.0,0.94942725,0.31679207,-0.11389231,0.918908,0.0,1.0,0.94377726,23.125822,-8.314138
2.14,3.5916748,0.008687649,0.918908,0.0,0.9514482,0.37712213,-0.1277044,0.918908,0.0,1.0,0.94344836,27.529915,-9.322421
2.16,4.5080566,0.0074622356,0.918908,0.0,0.9534907,0.40914172,-0.1387147,0.918908,0.0,1.0,0.94408816,29.867346,-10.126173
2.18,4.680237,0.0061841602,0.918908,0.0,0.9551609,0.41164163,-0.1445283,0.918908,0.0,1.0,0.94565934,30.049839,-10.550566
2.2,4.101837,0.0049379985,0.918908,0.0,0.95618874,0.38539395,-0.14429182,0.918908,0.0,1.0,0.9478744,28.133759,-10.533302
2.22,2.8084412,0.003803621,0.918908,0.0,0.9564977,0.3329267,-0.13882579,0.918908,0.0,1.0,0.95030195,24.303648,-10.134283
2.24,0.87384033,0.0028514778,0.918908,0.0,0.95623773,0.25819165,-0.13038906,0.918908,0.0,1.0,0.95251524,18.84799,-9.518402
2.26,-1.5952454,0.0021389683,0.918908,0.0,0.95576566,0.16614723,-0.12214293,0.918908,0.0,1.0,0.95422524,12.128748,-8.916434
2.28,-4.4662476,0.0017080709,0.918908,0.0,0.9555713,0.06234105,-0.11744539,0.918908,0.0,1.0,0.9553546,4.5508966,-8.573513
2.3,-7.587677,0.0015841383,0.918908,0.0,0.956173,-0.047421858,-0.119156644,0.918908,0.0,1.0,0.95604765,-3.4617956,-8.698435
2.32,-10.796448,0.0017755721,0.918908,0.0,0.95800626,-0.15728192,-0.12907268,0.918908,0.0,1.0,0.95662916,-11.48158,-9.422306
2.34,-13.924988,0.0022739847,0.918908,0.0,0.9613275,-0.26139808,-0.14755562,0.918908,0.0,1.0,0.9575321,-19.08206,-10.771561
2.36,-16.808136,0.0030544864,0.918908,0.0,0.96615356,-0.3539393,-0.173397,0.918908,0.0,1.0,0.95921874,-25.837568,-12.657981
2.38,-19.29068,0.004075963,0.918908,0.0,0.972243,-0.42913002,-0.20392969,0.918908,0.0,1.0,0.9620959,-31.32649,-14.886868
2.4,-21.235016,0.005281569,0.918908,0.0,0.97912264,-0.4814496,-0.23542164,0.918908,0.0,1.0,0.96642405,-35.14582,-17.18578
2.42,-22.529694,0.0065999464,0.918908,0.0,0.9861564,-0.5060742,-0.2637536,0.918908,0.0,1.0,0.97221744,-36.943417,-19.254013
2.44,-23.097687,0.007947865,0.918908,0.0,0.9926406,-0.49955446,-0.28528607,0.918908,0.0,1.0,0.97915095,-36.467476,-20.825884
2.46,-22.903778,0.0092348615,0.918908,0.0,0.9979121,-0.46059322,-0.2976993,0.918908,0.0,1.0,0.98651767,-33.623306,-21.73205
2.48,-21.959717,0.010369971,0.918908,0.0,1.0014523,-0.39067638,-0.30052763,0.918908,0.0,1.0,0.993297,-28.519375,-21.938517
2.5,-20.32544,0.011269914,0.918908,0.0,1.0029749,-0.2943018,-0.29518557,0.918908,0.0,1.0,0.99836206,-21.484032,-21.548546
2.52,-18.105927,0.01186741,0.918908,0.0,1.0024786,-0.17861079,-0.2844582,0.918908,0.0,1.0,1.0007813,-13.038588,-20.765448
2.54,-15.442688,0.012117887,0.918908,0.0,1.0002455,-0.05243652,-0.2716399,0.918908,0.0,1.0,1.0000988,-3.8278658,-19.829714
2.56,-12.502747,0.012003105,0.918908,0.0,0.9967672,0.07492959,-0.25961128,0.918908,0.0,1.0,0.996467,5.46986,-18.951624
2.58,-9.464508,0.011531229,0.918908,0.0,0.99261284,0.19486067,-0.25011867,0.918908,0.0,1.0,0.9905721,14.224829,-18.258663
2.6,-6.5050354,0.010733991,0.918908,0.0,0.9882836,0.3000583,-0.24345061,0.918908,0.0,1.0,0.9834165,21.904257,-17.771894
2.62,-3.788391,0.009662364,0.918908,0.0,0.98410755,0.38473624,-0.23853163,0.918908,0.0,1.0,0.9760587,28.085745,-17.41281
2.64,-1.4565735,0.008382045,0.918908,0.0,0.980215,0.44449627,-0.23339885,0.918908,0.0,1.0,0.9694136,32.448227,-17.038116
2.66,0.3765869,0.0069694184,0.918908,0.0,0.9765918,0.47617188,-0.22592087,0.918908,0.0,1.0,0.9641391,34.760548,-16.492224
2.68,1.6300964,0.005507946,0.918908,0.0,0.97317433,0.47780097,-0.21457784,0.918908,0.0,1.0,0.9605912,34.87947,-15.664183
2.7,2.2586365,0.004084563,0.918908,0.0,0.9699335,0.44876957,-0.1990607,0.918908,0.0,1.0,0.958804,32.760178,-14.53143
2.72,2.2543945,0.0027856268,0.918908,0.0,0.9668999,0.39005426,-0.18047568,0.918908,0.0,1.0,0.9584775,28.47396,-13.174725
2.74,1.6467285,0.0016921998,0.918908,0.0,0.9641227,0.30449873,-0.16104896,0.918908,0.0,1.0,0.9589839,22.228407,-11.756575
2.76,0.500824,8.7463076E-4,0.918908,0.0,0.9615944,0.19703455,-0.14342126,0.918908,0.0,1.0,0.9594404,14.383522,-10.469752
2.78,-1.0864258,3.866934E-4,0.918908,0.0,0.9591973,0.07471691,-0.12976801,0.918908,0.0,1.0,0.95888704,5.4543343,-9.473065
2.8,-2.992981,2.5991965E-4,0.918908,0.0,0.95671934,-0.053591352,-0.12107294,0.918908,0.0,1.0,0.95655936,-3.9121687,-8.838325
2.82,-5.0811462,4.992567E-4,0.918908,0.0,0.9539392,-0.17802715,-0.11682065,0.918908,0.0,1.0,0.952167,-12.995982,-8.527907
2.84,-7.2091675,0.0010814253,0.918908,0.0,0.9507368,-0.28896186,-0.11524121,0.918908,0.0,1.0,0.94604474,-21.094215,-8.412608
2.86,-9.242828,0.001956967,0.918908,0.0,0.9471739,-0.37834367,-0.11401766,0.918908,0.0,1.0,0.93908536,-27.619087,-8.323289
2.88,-11.067169,0.003055931,0.918908,0.0,0.94350135,-0.44072628,-0.111149825,0.918908,0.0,1.0,0.93246543,-32.17302,-8.113937
2.9,-12.593689,0.004295993,0.918908,0.0,0.94010234,-0.4736713,-0.10564142,0.918908,0.0,1.0,0.9272963,-34.578003,-7.7118235
2.92,-13.764954,0.0055911443,0.918908,0.0,0.937401,-0.47754148,-0.097774334,0.918908,0.0,1.0,0.92434525,-34.860527,-7.1375265
2.94,-14.554596,0.0068593207,0.918908,0.0,0.9357832,-0.4548804,-0.08896308,0.918908,0.0,1.0,0.92392427,-33.20627,-6.4943047
2.96,-14.964203,0.008028007,0.918908,0.0,0.9355543,-0.40962735,-0.08133989,0.918908,0.0,1.0,0.9259468,-29.902796,-5.937812
2.98,-15.019043,0.009037527,0.918908,0.0,0.9369336,-0.3463753,-0.07727538,0.918908,0.0,1.0,0.93008435,-25.285397,-5.641103
