Time,Rotor Angle,Rotor Speed,EQ' Volts, ED' Volts,Term Volts,Elec Power Re,Elec Pwr Im,Fld Volts,Mech Power, Satn Factor, Air Gap Volts,Elec MW,Elec MVAr
0.0,13.847685,0.0,1.0611358,0.0,0.9995074,0.9126725,0.0854906,1.0611358,0.91361076,1.0,0.9656278,365.069,34.19624
0.02,13.847998,3.3364845E-6,1.0611358,0.0,0.9995065,0.9126785,0.08549172,1.0611358,0.91361076,1.0,0.96562636,365.07138,34.196686
0.04,13.849241,5.9279664E-6,1.0611358,0.0,0.9995031,0.9127036,0.085495606,1.0611358,0.91361076,1.0,0.9656209,365.08142,34.198242
0.06,13.851269,8.39988E-6,1.0611358,0.0,0.99949723,0.9127443,0.08550194,1.0611358,0.91361076,1.0,0.9656118,365.09772,34.200775
0.08,13.854008,1.0710236E-5,1.0611358,0.0,0.9994894,0.9127991,0.08551055,1.0611358,0.91361076,1.0,0.96559966,365.11966,34.20422
0.1,13.857357,1.2822477E-5,1.0611358,0.0,0.8607017,0.6387005,0.50729454,1.0611358,0.91361076,1.0,0.84154713,255.4802,202.91782
0.12,13.892742,7.95251E-4,1.0611358,0.0,0.8606164,0.6392064,0.5073669,1.0611358,0.91361076,1.0,0.8414291,255.68256,202.94676
0.14,14.053574,0.0015638281,1.0611358,0.0,0.860227,0.6414821,0.5077019,1.0611358,0.91361076,1.0,0.8408924,256.59283,203.08075
0.16,14.335046,0.0023137657,1.0611358,0.0,0.8595322,0.6454339,0.5083149,1.0611358,0.91361076,1.0,0.8399396,258.17355,203.32596
0.18,14.728662,0.0030406602,1.0611358,0.0,0.8585286,0.650903,0.5092344,1.0611358,0.91361076,1.0,0.8385749,260.3612,203.69377
0.2,15.222498,0.003740664,1.0611358,0.0,0.8572138,0.6576738,0.51049644,1.0611358,0.91361076,1.0,0.83680564,263.06952,204.19858
0.22,15.801631,0.004410633,1.0611358,0.0,0.85558903,0.6654881,0.5121348,1.0611358,0.91361076,1.0,0.8346462,266.19525,204.85391
0.24,16.448631,0.005048227,1.0611358,0.0,0.8536617,0.6740562,0.514178,1.0611358,0.91361076,1.0,0.8321194,269.62247,205.67119
0.26,17.14416,0.005651975,1.0611358,0.0,0.8514478,0.6830769,0.5166408,1.0611358,0.91361076,1.0,0.8292583,273.23077,206.65631
0.28,17.867592,0.0062212856,1.0611358,0.0,0.848973,0.6922501,0.51952165,1.0611358,0.91361076,1.0,0.8261069,276.90002,207.80865
0.3,18.59766,0.0067564216,1.0611358,0.0,0.84627235,0.7012923,0.5228004,1.0611358,0.91361076,1.0,0.82271945,280.5169,209.12015
0.32,19.313135,0.0072584315,1.0611358,0.0,0.8433899,0.70994735,0.5264393,1.0611358,0.91361076,1.0,0.81915855,283.97894,210.57573
0.34,19.993393,0.007729052,1.0611358,0.0,0.8403763,0.7179964,0.5303858,1.0611358,0.91361076,1.0,0.81549233,287.19858,212.15431
0.36,20.618975,0.008170591,1.0611358,0.0,0.8372859,0.7252608,0.5345772,1.0611358,0.91361076,1.0,0.81179124,290.1043,213.83087
0.38,21.172043,0.008585801,1.0611358,0.0,0.8341736,0.73160195,0.53894615,1.0611358,0.91361076,1.0,0.8081242,292.64078,215.57846
0.4,21.63676,0.008977764,1.0611358,0.0,0.96349514,0.92147934,0.18664497,1.0611358,0.91361076,1.0,0.9276066,368.59174,74.65799
0.42,21.966415,0.008835329,1.0611358,0.0,0.9588376,0.9107904,0.20237346,1.0611358,0.91361076,1.0,0.9236157,364.31616,80.94939
0.44,22.055428,0.008724736,1.0611358,0.0,0.9556659,0.9010947,0.21366346,1.0611358,0.91361076,1.0,0.9210851,360.43787,85.465385
0.46,21.907394,0.008642386,1.0611358,0.0,0.9542436,0.8927654,0.2197941,1.0611358,0.91361076,1.0,0.9202585,357.10617,87.91764
0.48,21.53178,0.008583867,1.0611358,0.0,0.9546835,0.8859116,0.22047976,1.0611358,0.91361076,1.0,0.92124355,354.36462,88.1919
0.5,20.94321,0.00854467,1.0611358,0.0,0.9569485,0.8804519,0.21582401,1.0611358,0.91361076,1.0,0.92400783,352.18076,86.329605
0.52,20.161251,0.008520681,1.0611358,0.0,0.96085966,0.876178,0.20628983,1.0611358,0.91361076,1.0,0.928381,350.47122,82.51593
0.54,19.210228,0.008508509,1.0611358,0.0,0.9661037,0.87278783,0.19269791,1.0611358,0.91361076,1.0,0.93406117,349.11514,77.07916
0.56,18.119293,0.008505729,1.0611358,0.0,0.9722471,0.86989576,0.17623213,1.0611358,0.91361076,1.0,0.9406281,347.9583,70.49285
0.58,16.922295,0.00851111,1.0611358,0.0,0.9787623,0.86703336,0.15841757,1.0611358,0.91361076,1.0,0.94757044,346.81335,63.367027
0.6,15.657509,0.008524826,1.0611358,0.0,0.9850779,0.86366534,0.14100781,1.0611358,0.91361076,1.0,0.95433664,345.46613,56.403126
0.62,14.3669815,0.008548591,1.0611358,0.0,0.9906503,0.8592504,0.12577024,1.0611358,0.91361076,1.0,0.96040416,343.70016,50.308098
0.64,13.095245,0.008585583,1.0611358,0.0,0.9950502,0.8533596,0.11417583,1.0611358,0.91361076,1.0,0.9653597,341.34384,45.67033
0.66,11.887672,0.008639989,1.0611358,0.0,0.9980371,0.84584165,0.10708502,1.0611358,0.91361076,1.0,0.9689652,338.33667,42.834007
0.68,10.788353,0.0087160785,1.0611358,0.0,0.9995977,0.8369838,0.1045493,1.0611358,0.91361076,1.0,0.97118604,334.79352,41.81972
0.7,9.837936,0.008816873,1.0611358,0.0,0.9999277,0.82759553,0.105823755,1.0611358,0.91361076,1.0,0.97216845,331.0382,42.329502
0.72,9.071495,0.008942684,1.0611358,0.0,0.9993667,0.81895864,0.10959037,1.0611358,0.91361076,1.0,0.9721761,327.58347,43.836147
0.74,8.516754,0.009089932,1.0611358,0.0,0.9983076,0.81263244,0.1142936,1.0611358,0.91361076,1.0,0.9715121,325.05298,45.717438
0.76,8.19268,0.0092505915,1.0611358,0.0,0.9971184,0.8101742,0.11846245,1.0611358,0.91361076,1.0,0.9704542,324.0697,47.38498
0.78,8.108467,0.009412486,1.0611358,0.0,0.9960892,0.8128404,0.120929,1.0611358,0.91361076,1.0,0.9692183,325.13617,48.3716
0.8,8.262886,0.009560381,1.0611358,0.0,0.995411,0.82134783,0.12093546,1.0611358,0.91361076,1.0,0.9679476,328.53912,48.374184
0.82,8.644203,0.009677702,1.0611358,0.0,0.99517107,0.83571845,0.11817446,1.0611358,0.91361076,1.0,0.9667169,334.28738,47.269787
0.84,9.230438,0.009748571,1.0611358,0.0,0.9953559,0.8552363,0.11279255,1.0611358,0.91361076,1.0,0.96554214,342.0945,45.11702
0.86,9.99028,0.009759877,1.0611358,0.0,0.99585676,0.8785225,0.105381854,1.0611358,0.91361076,1.0,0.9643868,351.409,42.15274
0.88,10.88475,0.009703001,1.0611358,0.0,0.99648094,0.90372545,0.09693083,1.0611358,0.91361076,1.0,0.96316934,361.49017,38.77233
0.9,11.869156,0.009574908,1.0611358,0.0,0.99697715,0.9288075,0.0887005,1.0611358,0.91361076,1.0,0.9617747,371.523,35.4802
0.92,12.89566,0.009378359,1.0611358,0.0,0.9970822,0.9518853,0.082003206,1.0611358,0.91361076,1.0,0.9600786,380.75412,32.80128
0.94,13.915848,0.009121159,1.0611358,0.0,0.99658376,0.97152466,0.07791504,1.0611358,0.91361076,1.0,0.9579864,388.60986,31.166018
0.96,14.883636,0.008814658,1.0611358,0.0,0.99538165,0.98690844,0.077019095,1.0611358,0.91361076,1.0,0.9554765,394.76337,30.807638
0.98,15.757507,0.008471929,1.0611358,0.0,0.9935251,0.997815,0.07927525,1.0611358,0.91361076,1.0,0.9526346,399.126,31.7101
1.0,16.502518,0.008106142,1.0611358,0.0,0.9912069,1.0044385,0.08408567,1.0611358,0.91361076,1.0,0.94965875,401.77542,33.63427
1.02,17.091537,0.0077295783,1.0611358,0.0,0.98871934,1.0071316,0.0905093,1.0611358,0.91361076,1.0,0.9468335,402.85263,36.20372
1.04,17.505966,0.0073533417,1.0611358,0.0,0.98638606,1.0061929,0.097535044,1.0611358,0.91361076,1.0,0.9444766,402.47717,39.01402
1.06,17.7361,0.0069876406,1.0611358,0.0,0.98449546,1.0017543,0.104306936,1.0611358,0.91361076,1.0,0.94287986,400.70172,41.722775
1.08,17.781021,0.0066422853,1.0611358,0.0,0.98325264,0.99379194,0.11025357,1.0611358,0.91361076,1.0,0.94225615,397.51678,44.10143
1.1,17.648407,0.0063270796,1.0611358,0.0,0.9827519,0.98221785,0.11511789,1.0611358,0.91361076,1.0,0.9427037,392.88715,46.047157
1.12,17.35434,0.006051915,1.0611358,0.0,0.9829713,0.96701294,0.1189293,1.0611358,0.91361076,1.0,0.94418776,386.80518,47.57172
1.14,16.922287,0.0058264807,1.0611358,0.0,0.98377854,0.9483458,0.121953905,1.0611358,0.91361076,1.0,0.9465388,379.33832,48.781563
1.16,16.382568,0.005659662,1.0611358,0.0,0.9849456,0.926657,0.124644905,1.0611358,0.91361076,1.0,0.9494651,370.6628,49.857964
1.18,15.770721,0.005558757,1.0611358,0.0,0.9861739,0.9026746,0.12759826,1.0611358,0.91361076,1.0,0.9525815,361.06985,51.039303
1.2,15.125626,0.0055287024,1.0611358,0.0,0.9871307,0.8773642,0.13148028,1.0611358,0.91361076,1.0,0.9554584,350.94568,52.59211
1.22,14.48732,0.0055714957,1.0611358,0.0,0.98749995,0.85182863,0.1369231,1.0611358,0.91361076,1.0,0.9576843,340.73145,54.76924
1.24,13.894531,0.005685934,1.0611358,0.0,0.98704624,0.82718885,0.1443582,1.0611358,0.91361076,1.0,0.9589422,330.87555,57.743282
1.26,13.382309,0.0058676805,1.0611358,0.0,0.9856755,0.80449194,0.15384413,1.0611358,0.91361076,1.0,0.9590756,321.79678,61.537655
1.28,12.979721,0.006109559,1.0611358,0.0,0.98347497,0.78467447,0.16493785,1.0611358,0.91361076,1.0,0.95812833,313.86978,65.97514
1.3,12.708572,0.0064018937,1.0611358,0.0,0.98071384,0.7685883,0.17668538,1.0611358,0.91361076,1.0,0.9563387,307.43533,70.67415
1.32,12.582352,0.0067327674,1.0611358,0.0,0.9777977,0.75703204,0.18775772,1.0611358,0.91361076,1.0,0.9540868,302.8128,75.10309
1.34,12.606018,0.007088184,1.0611358,0.0,0.9751859,0.7507643,0.19669569,1.0611358,0.91361076,1.0,0.9518068,300.30573,78.678276
1.36,12.775986,0.0074522416,1.0611358,0.0,0.97330093,0.7504393,0.20217973,1.0611358,0.91361076,1.0,0.9498959,300.17572,80.871895
1.38,13.08046,0.007807535,1.0611358,0.0,0.97244966,0.75649697,0.20325539,1.0611358,0.91361076,1.0,0.9486393,302.5988,81.302155
1.4,13.500015,0.008135883,1.0611358,0.0,0.9727776,0.7690189,0.19947141,1.0611358,0.91361076,1.0,0.9481706,307.60754,79.78857
1.42,14.008118,0.008419454,1.0611358,0.0,0.97425604,0.7876093,0.19093111,1.0611358,0.91361076,1.0,0.94846874,315.0437,76.372444
1.44,14.571899,0.0086421855,1.0611358,0.0,0.9766977,0.81132346,0.1782823,1.0611358,0.91361076,1.0,0.9493818,324.5294,71.31292
1.46,15.153885,0.00879132,1.0611358,0.0,0.97979075,0.8386909,0.16265684,1.0611358,0.91361076,1.0,0.9506672,335.47635,65.06274
1.48,15.713593,0.0088587925,1.0611358,0.0,0.9831431,0.8678242,0.14556795,1.0611358,0.91361076,1.0,0.95203716,347.12967,58.22718
1.5,16.210297,0.00884222,1.0611358,0.0,0.98633003,0.89663064,0.12875637,1.0611358,0.91361076,1.0,0.9531992,358.65225,51.50255
1.52,16.60585,0.008745217,1.0611358,0.0,0.98894894,0.92307633,0.11397347,1.0611358,0.91361076,1.0,0.95389485,369.23053,45.589386
1.54,16.867874,0.008576938,1.0611358,0.0,0.9906749,0.94547987,0.10271567,1.0611358,0.91361076,1.0,0.95393187,378.19196,41.08627
1.56,16.972458,0.00835081,1.0611358,0.0,0.991317,0.9627415,0.09595063,1.0611358,0.91361076,1.0,0.95321876,385.0966,38.380253
1.58,16.905823,0.008082712,1.0611358,0.0,0.9908638,0.9744533,0.09391037,1.0611358,0.91361076,1.0,0.9517953,389.7813,37.564148
1.6,16.665146,0.0077889725,1.0611358,0.0,0.9895022,0.9808567,0.096021414,1.0611358,0.91361076,1.0,0.9498511,392.34268,38.408566
1.62,16.258377,0.007484619,1.0611358,0.0,0.9875965,0.9826702,0.101026535,1.0611358,0.91361076,1.0,0.94771564,393.06808,40.410614
1.64,15.702621,0.0071822144,1.0611358,0.0,0.98562837,0.9808417,0.10725331,1.0611358,0.91361076,1.0,0.94581616,392.33667,42.901325
1.66,15.022827,0.006891399,1.0611358,0.0,0.9841075,0.9763285,0.112954855,1.0611358,0.91361076,1.0,0.944605,390.5314,45.181942
1.68,14.249756,0.0066190357,1.0611358,0.0,0.98348105,0.96994567,0.11661493,1.0611358,0.91361076,1.0,0.94447803,387.97827,46.645973
1.7,13.4184265,0.0063697114,1.0611358,0.0,0.9840561,0.96230286,0.1171698,1.0611358,0.91361076,1.0,0.94570106,384.92114,46.86792
1.72,12.567108,0.0061463555,1.0611358,0.0,0.9859506,0.95381755,0.11412569,1.0611358,0.91361076,1.0,0.9483577,381.527,45.650276
1.74,11.735504,0.0059507824,1.0611358,0.0,0.98907626,0.94476056,0.107594356,1.0611358,0.91361076,1.0,0.9523286,377.90424,43.037743
1.76,10.963928,0.0057840873,1.0611358,0.0,0.9931463,0.9353093,0.09827609,1.0611358,0.91361076,1.0,0.95729715,374.12372,39.310436
1.78,10.2916565,0.0056468826,1.0611358,0.0,0.99770826,0.925586,0.087397054,1.0611358,0.91361076,1.0,0.96278054,370.2344,34.95882
1.8,9.754669,0.0055394643,1.0611358,0.0,1.0021987,0.9156645,0.076587126,1.0611358,0.91361076,1.0,0.96818745,366.2658,30.63485
1.82,9.384064,0.0054619443,1.0611358,0.0,1.0060163,0.90556985,0.06768011,1.0611358,0.91361076,1.0,0.9728941,362.22794,27.072044
1.84,9.203308,0.005414398,1.0611358,0.0,1.0086085,0.89527696,0.06243728,1.0611358,0.91361076,1.0,0.9763334,358.11078,24.974913
1.86,9.226532,0.0053970055,1.0611358,0.0,1.0095617,0.8847277,0.062223107,1.0611358,0.91361076,1.0,0.97808546,353.89108,24.889242
1.88,9.457001,0.005410093,1.0611358,0.0,1.0086743,0.87391245,0.06770329,1.0611358,0.91361076,1.0,0.9779471,349.56497,27.081316
1.9,9.887665,0.0054539153,1.0611358,0.0,1.0059956,0.8629776,0.07867028,1.0611358,0.91361076,1.0,0.9759622,345.19104,31.468111
1.92,10.501282,0.0055281427,1.0611358,0.0,1.0018117,0.8523209,0.09407391,1.0611358,0.91361076,1.0,0.97240055,340.92838,37.629562
1.94,11.272919,0.0056311176,1.0611358,0.0,0.99658513,0.8426068,0.11224662,1.0611358,0.91361076,1.0,0.9676952,337.04272,44.898647
1.96,12.171753,0.0057591717,1.0611358,0.0,0.99086404,0.83466166,0.13126226,1.0611358,0.91361076,1.0,0.96235573,333.86465,52.5049
1.98,13.163116,0.005906313,1.0611358,0.0,0.9851914,0.8292888,0.14928494,1.0611358,0.91361076,1.0,0.9568876,331.7155,59.713978
2.0,14.210205,0.0060644876,1.0611358,0.0,0.9800358,0.82704806,0.16483115,1.0611358,0.91361076,1.0,0.9517344,330.8192,65.93246
2.02,15.275024,0.0062244292,1.0611358,0.0,0.97575176,0.82808983,0.17689684,1.0611358,0.91361076,1.0,0.9472497,331.23593,70.758736
2.04,16.319672,0.0063769184,1.0611358,0.0,0.97256655,0.83208084,0.18498409,1.0611358,0.91361076,1.0,0.9436877,332.83234,73.99364
2.06,17.306915,0.006514152,1.0611358,0.0,0.97058034,0.8382414,0.1890629,1.0611358,0.91361076,1.0,0.9412038,335.29657,75.62516
2.08,18.201233,0.006630909,1.0611358,0.0,0.96977186,0.8454865,0.18950865,1.0611358,0.91361076,1.0,0.9398515,338.1946,75.80346
2.1,18.97049,0.006725237,1.0611358,0.0,0.97000414,0.8526455,0.18702602,1.0611358,0.91361076,1.0,0.93957424,341.0582,74.81041
2.12,19.587494,0.006798472,1.0611358,0.0,0.97103214,0.8587098,0.1825685,1.0611358,0.91361076,1.0,0.9401945,343.48392,73.027405
2.14,20.0318,0.0068545546,1.0611358,0.0,0.97252333,0.8630629,0.17723006,1.0611358,0.91361076,1.0,0.9414163,345.22516,70.89202
2.16,20.291077,0.0068987715,1.0611358,0.0,0.97409713,0.86560494,0.17210956,1.0611358,0.91361076,1.0,0.94285583,346.24197,68.84383
2.18,20.361755,0.006936226,1.0611358,0.0,0.97538984,0.8667679,0.1681315,1.0611358,0.91361076,1.0,0.944106,346.70715,67.2526
2.2,20.248596,0.0069703977,1.0611358,0.0,0.97612995,0.8673914,0.16585943,1.0611358,0.91361076,1.0,0.944825,346.95657,66.34377
2.22,19.963257,0.0070021446,1.0611358,0.0,0.9762058,0.8685051,0.16535407,1.0611358,0.91361076,1.0,0.9448215,347.40204,66.14163
2.24,19.522217,0.0070293797,1.0611358,0.0,0.9756972,0.87108314,0.16613288,1.0611358,0.91361076,1.0,0.94410616,348.43326,66.453156
2.26,18.944366,0.0070474287,1.0611358,0.0,0.9748631,0.8758359,0.16726243,1.0611358,0.91361076,1.0,0.9428923,350.33435,66.904976
2.28,18.249207,0.007049923,1.0611358,0.0,0.97408336,0.88309157,0.16756064,1.0611358,0.91361076,1.0,0.94154465,353.23663,67.024254
2.3,17.455933,0.007029947,1.0611358,0.0,0.97377515,0.89276785,0.16585234,1.0611358,0.91361076,1.0,0.94049585,357.10715,66.340935
2.32,16.583221,0.0069811884,1.0611358,0.0,0.97430474,0.9044231,0.16120481,1.0611358,0.91361076,1.0,0.9401542,361.76926,64.481926
2.34,15.649841,0.0068988875,1.0611358,0.0,0.9759114,0.91735756,0.15311095,1.0611358,0.91361076,1.0,0.94081867,366.94302,61.24438
2.36,14.67569,0.006780469,1.0611358,0.0,0.9786565,0.9307201,0.14159551,1.0611358,0.91361076,1.0,0.94261944,372.28802,56.638206
2.38,13.682556,0.006625869,1.0611358,0.0,0.98240435,0.94361186,0.12724696,1.0611358,0.91361076,1.0,0.9454892,377.44473,50.898785
2.4,12.694214,0.006437586,1.0611358,0.0,0.986839,0.955135,0.11117609,1.0611358,0.91361076,1.0,0.94917536,382.054,44.470436
2.42,11.735779,0.006220632,1.0611358,0.0,0.9915133,0.96439725,0.09490225,1.0611358,0.91361076,1.0,0.95328915,385.7589,37.9609
2.44,10.832672,0.005982504,1.0611358,0.0,0.9959226,0.97046643,0.08017677,1.0611358,0.91361076,1.0,0.95738435,388.18658,32.07071
2.46,10.00885,0.0057333056,1.0611358,0.0,0.9995901,0.9723235,0.06874383,1.0611358,0.91361076,1.0,0.96104884,388.92938,27.497534
2.48,9.285339,0.005485952,1.0611358,0.0,1.0021489,0.96889985,0.06205775,1.0611358,0.91361076,1.0,0.96398556,387.55994,24.8231
2.5,8.679565,0.005256169,1.0611358,0.0,1.003408,0.95925605,0.060991958,1.0611358,0.91361076,1.0,0.966064,383.70242,24.396784
2.52,8.205505,0.005061881,1.0611358,0.0,1.0033847,0.94289035,0.06561425,1.0611358,0.91361076,1.0,0.96732676,377.15613,26.2457
2.54,7.8750305,0.0049216985,1.0611358,0.0,1.0022949,0.92005324,0.075120464,1.0611358,0.91361076,1.0,0.9679544,368.0213,30.048185
2.56,7.6990967,0.004852608,1.0611358,0.0,1.0004898,0.891912,0.088012114,1.0611358,0.91361076,1.0,0.9681922,356.7648,35.204845
2.58,7.6890564,0.0048673926,1.0611358,0.0,0.998361,0.86046755,0.1024681,1.0611358,0.91361076,1.0,0.9682693,344.187,40.98724
2.6,7.8565063,0.004972522,1.0611358,0.0,0.9962412,0.8282318,0.11678648,1.0611358,0.91361076,1.0,0.9683327,331.29272,46.714592
2.62,8.211975,0.005167091,1.0611358,0.0,0.99433976,0.7977922,0.12971552,1.0611358,0.91361076,1.0,0.9684211,319.11688,51.886208
2.64,8.763153,0.0054430077,1.0611358,0.0,0.99273247,0.7714119,0.14057156,1.0611358,0.91361076,1.0,0.96848035,308.56476,56.228626
2.66,9.512207,0.0057862415,1.0611358,0.0,0.99139845,0.75076556,0.14914776,1.0611358,0.91361076,1.0,0.9684108,300.3062,59.659107
2.68,10.453583,0.006178685,1.0611358,0.0,0.99028105,0.73683757,0.15550949,1.0611358,0.91361076,1.0,0.9681224,294.73502,62.203796
2.7,11.572845,0.0066001555,1.0611358,0.0,0.98933375,0.7299889,0.15980098,1.0611358,0.91361076,1.0,0.9675684,291.99554,63.92039
2.72,12.84668,0.007030085,1.0611358,0.0,0.9885285,0.7301326,0.16216698,1.0611358,0.91361076,1.0,0.9667363,292.05304,64.86679
2.74,14.2430725,0.007448652,1.0611358,0.0,0.98781997,0.73695666,0.16280639,1.0611358,0.91361076,1.0,0.9655976,294.78265,65.12256
2.76,15.723602,0.007837242,1.0611358,0.0,0.98709327,0.7501379,0.16208777,1.0611358,0.91361076,1.0,0.9640419,300.05518,64.835106
2.78,17.244781,0.00817836,1.0611358,0.0,0.9861344,0.7694645,0.16060811,1.0611358,0.91361076,1.0,0.9618406,307.7858,64.24325
2.8,18.759827,0.008455271,1.0611358,0.0,0.9846548,0.79482985,0.1591166,1.0611358,0.91361076,1.0,0.9586709,317.93195,63.646637
2.82,20.219604,0.008651775,1.0611358,0.0,0.9823717,0.8260876,0.15829366,1.0611358,0.91361076,1.0,0.95420617,330.43503,63.317467
2.84,21.573029,0.008752478,1.0611358,0.0,0.9791103,0.8628027,0.15850878,1.0611358,0.91361076,1.0,0.94823843,345.12106,63.40351
2.86,22.768005,0.0087437825,1.0611358,0.0,0.9748861,0.9040106,0.1596708,1.0611358,0.91361076,1.0,0.94078827,361.60425,63.86832
2.88,23.751373,0.008615503,1.0611358,0.0,0.9699317,0.94806474,0.16127601,1.0611358,0.91361076,1.0,0.93216187,379.2259,64.51041
2.9,24.471436,0.008362782,1.0611358,0.0,0.9646674,0.9926633,0.16261478,1.0611358,0.91361076,1.0,0.92294276,397.06534,65.04591
2.92,24.880219,0.007987749,1.0611358,0.0,0.9596313,1.0350603,0.16302513,1.0611358,0.91361076,1.0,0.9139261,414.0241,65.21005
2.94,24.937408,0.007500465,1.0611358,0.0,0.95539683,1.0724016,0.1620704,1.0611358,0.91361076,1.0,0.90601426,428.96066,64.828156
2.96,24.61441,0.0069188527,1.0611358,0.0,0.9524961,1.1020917,0.15957376,1.0611358,0.91361076,1.0,0.90009284,440.83667,63.829506
2.98,23.897552,0.0062676114,1.0611358,0.0,0.95135957,1.1220963,0.15552685,1.0611358,0.91361076,1.0,0.89690983,448.83853,62.21074
