Time,Rotor Angle,Rotor Speed,EQ' Volts, ED' Volts,Term Volts,Elec Power Re,Elec Pwr Im,Fld Volts,Mech Power, Satn Factor, Air Gap Volts,Elec MW,Elec MVAr
0.0,-22.04166,0.0,1.0720258,0.0,0.9996461,0.0064503513,0.24117404,1.0720258,0.005896572,1.0,0.9996446,1.2900703,48.23481
0.02,-22.042036,-1.969307E-6,1.0720258,0.0,0.9996453,0.0064367987,0.24117662,1.0720258,0.005896572,1.0,0.99964374,1.2873597,48.235325
0.04,-22.043531,-3.44625E-6,1.0720258,0.0,0.99964213,0.0063820034,0.2411868,1.0720258,0.005896572,1.0,0.9996405,1.2764007,48.23736
0.06,-22.045969,-4.7216477E-6,1.0720258,0.0,0.999637,0.006293077,0.24120295,1.0720258,0.005896572,1.0,0.9996354,1.2586154,48.24059
0.08,-22.049269,-5.70287E-6,1.0720258,0.0,0.9996299,0.006173119,0.24122486,1.0720258,0.005896572,1.0,0.9996284,1.2346238,48.244972
0.1,-22.053322,-6.3081175E-6,1.0720258,0.0,0.75722986,0.10411657,0.7925725,1.0720258,0.005896572,1.0,0.75666904,20.823313,158.5145
0.12,-22.14131,-2.8579117E-4,1.0720258,0.0,0.75713223,0.10239288,0.7927819,1.0720258,0.005896572,1.0,0.75658983,20.478577,158.55638
0.14,-22.560287,-5.5169617E-4,1.0720258,0.0,0.75666493,0.09413819,0.7937691,1.0720258,0.005896572,1.0,0.7562061,18.827639,158.75383
0.16,-23.300682,-7.8576506E-4,1.0720258,0.0,0.7558146,0.07959521,0.7954835,1.0720258,0.005896572,1.0,0.75548637,15.919042,159.09671
0.18,-24.34681,-9.7081496E-4,1.0720258,0.0,0.75456005,0.059179362,0.79784036,1.0720258,0.005896572,1.0,0.75437826,11.835873,159.56807
0.2,-25.677288,-0.0010912098,1.0720258,0.0,0.7528761,0.033469945,0.80072546,1.0720258,0.005896572,1.0,0.7528179,6.693989,160.1451
0.22,-27.265602,-0.0011332938,1.0720258,0.0,0.75074047,0.0031938553,0.8040043,1.0720258,0.005896572,1.0,0.75073993,0.63877106,160.80086
0.24,-29.080814,-0.0010857695,1.0720258,0.0,0.7481389,-0.030797303,0.80753046,1.0720258,0.005896572,1.0,0.74808925,-6.1594605,161.50609
0.26,-31.088371,-9.399966E-4,1.0720258,0.0,0.7450723,-0.0675596,0.81115586,1.0720258,0.005896572,1.0,0.74483246,-13.51192,162.23117
0.28,-33.25104,-6.9019216E-4,1.0720258,0.0,0.7415603,-0.10609372,0.81474227,1.0720258,0.005896572,1.0,0.74096566,-21.218744,162.94846
0.3,-35.529884,-3.335164E-4,1.0720258,0.0,0.7376442,-0.14538917,0.81816936,1.0720258,0.005896572,1.0,0.7365213,-29.077833,163.63387
0.32,-37.885223,1.2996735E-4,1.0720258,0.0,0.73338765,-0.1844664,0.82134306,1.0720258,0.005896572,1.0,0.73156863,-36.89328,164.26862
0.34,-40.277645,6.974542E-4,1.0720258,0.0,0.7288747,-0.22241849,0.8241995,1.0720258,0.005896572,1.0,0.72621226,-44.483696,164.8399
0.36,-42.668846,0.0013636656,1.0720258,0.0,0.7242065,-0.25844243,0.8267061,1.0720258,0.005896572,1.0,0.7205862,-51.688488,165.34122
0.38,-45.02249,0.0021211999,1.0720258,0.0,0.7194955,-0.29186165,0.8288604,1.0720258,0.005896572,1.0,0.7148446,-58.37233,165.77208
0.4,-47.304855,0.0029609317,1.0720258,0.0,0.8950311,-0.9200838,0.39285117,1.0720258,0.005896572,1.0,0.8571959,-184.01677,78.57024
0.42,-49.277084,0.005593665,1.0720258,0.0,0.8809742,-0.9662958,0.40906987,1.0720258,0.005896572,1.0,0.8384466,-193.25916,81.81397
0.44,-50.28437,0.008298684,1.0720258,0.0,0.872086,-0.9831106,0.4220813,1.0720258,0.005896572,1.0,0.82755315,-196.62212,84.41626
0.46,-50.31448,0.010994227,1.0720258,0.0,0.8689357,-0.9742657,0.43143594,1.0720258,0.005896572,1.0,0.8250547,-194.85313,86.287186
0.48,-49.381683,0.013609066,1.0720258,0.0,0.87160575,-0.9416077,0.43654773,1.0720258,0.005896572,1.0,0.83082044,-188.32155,87.30955
0.5,-47.523235,0.016076766,1.0720258,0.0,0.87975544,-0.88494337,0.43671256,1.0720258,0.005896572,1.0,0.84418076,-176.98868,87.342514
0.52,-44.798218,0.018329985,1.0720258,0.0,0.8926621,-0.8024176,0.43112922,1.0720258,0.005896572,1.0,0.8639573,-160.48352,86.225845
0.54,-41.288773,0.02029629,1.0720258,0.0,0.9092397,-0.69135857,0.41896468,1.0720258,0.005896572,1.0,0.88841724,-138.27171,83.79294
0.56,-37.10289,0.021896739,1.0720258,0.0,0.9280609,-0.549572,0.39950708,1.0720258,0.005896572,1.0,0.91522914,-109.9144,79.90141
0.58,-32.377583,0.023048477,1.0720258,0.0,0.9474259,-0.37699214,0.3724419,1.0720258,0.005896572,1.0,0.9415338,-75.39843,74.48838
0.6,-27.280727,0.023672083,1.0720258,0.0,0.9655188,-0.17734277,0.33822095,1.0720258,0.005896572,1.0,0.96424246,-35.468555,67.64419
0.62,-22.009727,0.023703223,1.0720258,0.0,0.98066163,0.040827934,0.29842007,1.0720258,0.005896572,1.0,0.980595,8.165586,59.684013
0.64,-16.785439,0.023106253,1.0720258,0.0,0.99162394,0.26444823,0.25587973,1.0720258,0.005896572,1.0,0.98885864,52.889645,51.175945
0.66,-11.840721,0.021885572,1.0720258,0.0,0.9978912,0.47786608,0.2144294,1.0720258,0.005896572,1.0,0.9888902,95.57322,42.88588
0.68,-7.4048004,0.020090327,1.0720258,0.0,0.99977803,0.6658799,0.17816952,1.0720258,0.005896572,1.0,0.9822588,133.17598,35.633904
0.7,-3.6862717,0.017810294,1.0720258,0.0,0.99832124,0.81661,0.15054777,1.0720258,0.005896572,1.0,0.9718139,163.32199,30.109554
0.72,-0.8580551,0.015164451,1.0720258,0.0,0.9949801,0.92300725,0.13363314,1.0720258,0.005896572,1.0,0.9608681,184.60146,26.726627
0.74,0.9532776,0.012286682,1.0720258,0.0,0.9912601,0.9826251,0.12784466,1.0720258,0.005896572,1.0,0.9523558,196.52502,25.568932
0.76,1.6727448,0.009313353,1.0720258,0.0,0.9883849,0.9962072,0.13215896,1.0720258,0.005896572,1.0,0.9482536,199.24144,26.431793
0.78,1.278038,0.0063753957,1.0720258,0.0,0.9871007,0.96605146,0.14456409,1.0720258,0.005896572,1.0,0.94935876,193.2103,28.912819
0.8,-0.20228577,0.003594902,1.0720258,0.0,0.98761684,0.89487123,0.16254056,1.0720258,0.005896572,1.0,0.9553401,178.97424,32.50811
0.82,-2.6917114,0.0010844726,1.0720258,0.0,0.98964536,0.7854262,0.18343464,1.0720258,0.005896572,1.0,0.9649287,157.08524,36.686928
0.84,-6.0691605,-0.0010529245,1.0720258,0.0,0.9924937,0.6408816,0.20473145,1.0720258,0.005896572,1.0,0.976155,128.17632,40.94629
0.86,-10.172951,-0.002725508,1.0720258,0.0,0.99518764,0.46564254,0.2242777,1.0720258,0.005896572,1.0,0.9866197,93.12851,44.85554
0.88,-14.805733,-0.0038567723,1.0720258,0.0,0.9966295,0.26634938,0.24050006,1.0720258,0.005896572,1.0,0.9938383,53.269875,48.100014
0.9,-19.741776,-0.0043922276,1.0720258,0.0,0.995804,0.052565455,0.25261825,1.0720258,0.005896572,1.0,0.99569535,10.513091,50.52365
0.92,-24.737366,-0.0043074996,1.0720258,0.0,0.9920201,-0.16336125,0.2607913,1.0720258,0.005896572,1.0,0.9909662,-32.67225,52.15826
0.94,-29.544464,-0.003615116,1.0720258,0.0,0.98513263,-0.3675812,0.26609385,1.0720258,0.005896572,1.0,0.9797475,-73.516235,53.21877
0.96,-33.92611,-0.0023667987,1.0720258,0.0,0.97565615,-0.54692364,0.27024615,1.0720258,0.005896572,1.0,0.9635765,-109.38473,54.04923
0.98,-37.67228,-6.4929517E-4,1.0720258,0.0,0.96470195,-0.6911311,0.27512687,1.0720258,0.005896572,1.0,0.9451152,-138.22623,55.025375
1.0,-40.612602,0.0014255854,1.0720258,0.0,0.9537373,-0.79416627,0.28223288,1.0720258,0.005896572,1.0,0.9274821,-158.83325,56.446575
1.02,-42.624443,0.0037335209,1.0720258,0.0,0.9442488,-0.85412425,0.29228413,1.0720258,0.005896572,1.0,0.9134957,-170.82484,58.456825
1.04,-43.63595,0.006148924,1.0720258,0.0,0.9374241,-0.8720801,0.3050872,1.0720258,0.005896572,1.0,0.90509963,-174.41602,61.01744
1.06,-43.624786,0.008552394,1.0720258,0.0,0.93394506,-0.8506478,0.3196368,1.0720258,0.005896572,1.0,0.9030981,-170.12956,63.927357
1.08,-42.614777,0.010834159,1.0720258,0.0,0.93392414,-0.7929491,0.3343498,1.0720258,0.005896572,1.0,0.9071791,-158.58981,66.869965
1.1,-40.671677,0.0128950095,1.0720258,0.0,0.93696505,-0.7022587,0.34734845,1.0720258,0.005896572,1.0,0.91612345,-140.45174,69.46969
1.12,-37.898773,0.014646661,1.0720258,0.0,0.9423002,-0.58221495,0.3567521,1.0720258,0.005896572,1.0,0.92810756,-116.44299,71.35042
1.14,-34.433105,0.016012946,1.0720258,0.0,0.9489549,-0.43728152,0.36098334,1.0720258,0.005896572,1.0,0.9410317,-87.45631,72.19667
1.16,-30.440414,0.016932312,1.0720258,0.0,0.9559018,-0.27314523,0.3590721,1.0720258,0.005896572,1.0,0.9528407,-54.629047,71.814415
1.18,-26.10962,0.017361253,1.0720258,0.0,0.96218675,-0.09686943,0.35092056,1.0720258,0.005896572,1.0,0.9618048,-19.373886,70.18411
1.2,-21.645798,0.01727792,1.0720258,0.0,0.96702516,0.08325906,0.33745757,1.0720258,0.005896572,1.0,0.9667444,16.651812,67.491516
1.22,-17.261505,0.016685033,1.0720258,0.0,0.96988064,0.25816506,0.3206,1.0720258,0.005896572,1.0,0.9671861,51.63301,64.12
1.24,-13.167191,0.015611328,1.0720258,0.0,0.9705362,0.4186561,0.3029694,1.0720258,0.005896572,1.0,0.9634388,83.731224,60.59388
1.26,-9.560898,0.014110947,1.0720258,0.0,0.9691473,0.55625945,0.28738254,1.0720258,0.005896572,1.0,0.95656395,111.25189,57.47651
1.28,-6.6185303,0.01226041,1.0720258,0.0,0.96625084,0.6640505,0.27622646,1.0720258,0.005896572,1.0,0.9482129,132.8101,55.245293
1.3,-4.4848175,0.010153411,1.0720258,0.0,0.96269375,0.73722875,0.2709203,1.0720258,0.005896572,1.0,0.94032747,147.44576,54.184063
1.32,-3.2665558,0.007894357,1.0720258,0.0,0.95947444,0.7732197,0.27164084,1.0720258,0.005896572,1.0,0.934757,154.64394,54.328167
1.34,-3.027954,0.005592083,1.0720258,0.0,0.9575265,0.7712835,0.27739158,1.0720258,0.005896572,1.0,0.9328829,154.2567,55.478317
1.36,-3.7884521,0.0033550113,1.0720258,0.0,0.9575021,0.7318804,0.2863299,1.0720258,0.005896572,1.0,0.93534076,146.37608,57.26598
1.38,-5.5220795,0.0012881531,1.0720258,0.0,0.95961565,0.65616745,0.29620323,1.0720258,0.005896572,1.0,0.9418834,131.23349,59.240646
1.4,-8.158035,-5.0867966E-4,1.0720258,0.0,0.9635812,0.5459256,0.30476397,1.0720258,0.005896572,1.0,0.9513931,109.18512,60.952793
1.42,-11.582413,-0.0019428091,1.0720258,0.0,0.96865517,0.40400228,0.31011057,1.0720258,0.005896572,1.0,0.9620347,80.80045,62.022114
1.44,-15.640976,-0.0029321464,1.0720258,0.0,0.9737687,0.2350773,0.3109824,1.0720258,0.005896572,1.0,0.9715441,47.01546,62.19648
1.46,-20.143631,-0.0034108115,1.0720258,0.0,0.9777276,0.046369724,0.30701885,1.0720258,0.005896572,1.0,0.97764146,9.273945,61.40377
1.48,-24.872131,-0.003336403,1.0720258,0.0,0.9794434,-0.1521621,0.29895464,1.0720258,0.005896572,1.0,0.97851735,-30.43242,59.790928
1.5,-29.590439,-0.0026971847,1.0720258,0.0,0.97816116,-0.34842473,0.28863987,1.0720258,0.005896572,1.0,0.9732894,-69.684944,57.727974
1.52,-34.05812,-0.0015168387,1.0720258,0.0,0.97363293,-0.52960664,0.2787835,1.0720258,0.005896572,1.0,0.9622867,-105.921326,55.7567
1.54,-38.045395,1.4528219E-4,1.0720258,0.0,0.966204,-0.68401647,0.27238318,1.0720258,0.005896572,1.0,0.9470531,-136.8033,54.476635
1.56,-41.34764,0.0021991255,1.0720258,0.0,0.9567849,-0.80274093,0.27196234,1.0720258,0.005896572,1.0,0.93003947,-160.54819,54.392467
1.58,-43.7977,0.0045331074,1.0720258,0.0,0.94670933,-0.8805645,0.27884904,1.0720258,0.005896572,1.0,0.91407627,-176.1129,55.769806
1.6,-45.274017,0.007025078,1.0720258,0.0,0.9375076,-0.91590613,0.29273906,1.0720258,0.005896572,1.0,0.90179,-183.18123,58.547813
1.62,-45.704422,0.009552296,1.0720258,0.0,0.9306434,-0.90993536,0.3116803,1.0720258,0.005896572,1.0,0.8951287,-181.98708,62.336056
1.64,-45.066193,0.011998401,1.0720258,0.0,0.9272724,-0.86532885,0.3324343,1.0720258,0.005896572,1.0,0.8950944,-173.06577,66.48686
1.66,-43.38321,0.014256753,1.0720258,0.0,0.928072,-0.78516316,0.35104647,1.0720258,0.005896572,1.0,0.90168697,-157.03264,70.2093
1.68,-40.72229,0.016230905,1.0720258,0.0,0.93316185,-0.67232203,0.36346126,1.0720258,0.005896572,1.0,0.913998,-134.4644,72.69225
1.7,-37.18933,0.017833803,1.0720258,0.0,0.9421106,-0.52951163,0.3660783,1.0720258,0.005896572,1.0,0.93038434,-105.90233,73.21566
1.72,-32.925507,0.01898748,1.0720258,0.0,0.95400774,-0.3598189,0.3562583,1.0720258,0.005896572,1.0,0.94867885,-71.96378,71.25166
1.74,-28.104172,0.01962459,1.0720258,0.0,0.967578,-0.16758099,0.33280772,1.0720258,0.005896572,1.0,0.96644086,-33.516197,66.56155
1.76,-22.926483,0.01969246,1.0720258,0.0,0.98133147,0.04076997,0.29643348,1.0720258,0.005896572,1.0,0.9812652,8.153994,59.286697
1.78,-17.615723,0.019159282,1.0720258,0.0,0.99374145,0.25623307,0.25005782,1.0720258,0.005896572,1.0,0.9911511,51.246613,50.011562
1.8,-12.409668,0.018021122,1.0720258,0.0,1.0034459,0.46745092,0.1987874,1.0720258,0.005896572,1.0,0.99488264,93.49018,39.75748
1.82,-7.5490417,0.016307635,1.0720258,0.0,1.0094482,0.6617331,0.14934644,1.0720258,0.005896572,1.0,0.992317,132.34662,29.869287
1.84,-3.2659912,0.014084295,1.0720258,0.0,1.0112803,0.8266865,0.108940884,1.0720258,0.005896572,1.0,0.98446333,165.3373,21.788177
1.86,0.2303772,0.011449741,1.0720258,0.0,1.0090833,0.9519942,0.08377558,1.0720258,0.005896572,1.0,0.97328043,190.39883,16.755116
1.88,2.7654724,0.008528309,1.0720258,0.0,1.0035675,1.0307556,0.07768284,1.0720258,0.005896572,1.0,0.96121997,206.15112,15.536568
1.9,4.209961,0.0054594204,1.0720258,0.0,0.99585295,1.0599908,0.09132175,1.0720258,0.005896572,1.0,0.9506484,211.99815,18.26435
1.92,4.4850464,0.0023863218,1.0720258,0.0,0.9872213,1.0402762,0.12220157,1.0720258,0.005896572,1.0,0.9433228,208.05524,24.440313
1.94,3.566162,-5.534756E-4,1.0720258,0.0,0.9788442,0.97479624,0.1654578,1.0720258,0.005896572,1.0,0.9400643,194.95924,33.09156
1.96,1.4818115,-0.003234771,1.0720258,0.0,0.97155964,0.8682918,0.2150302,1.0720258,0.005896572,1.0,0.9406836,173.65836,43.00604
1.98,-1.6889038,-0.005548288,1.0720258,0.0,0.96574676,0.72625643,0.2648441,1.0720258,0.005896572,1.0,0.9441191,145.25128,52.96882
2.0,-5.820984,-0.0074022454,1.0720258,0.0,0.96130955,0.554565,0.30971593,1.0720258,0.005896572,1.0,0.9486999,110.913,61.943184
2.02,-10.7491455,-0.008723145,1.0720258,0.0,0.9577519,0.35948402,0.34588796,1.0720258,0.005896572,1.0,0.952454,71.896805,69.17759
2.04,-16.274414,-0.00945678,1.0720258,0.0,0.9543097,0.14792386,0.37124884,1.0720258,0.005896572,1.0,0.95341146,29.584772,74.24977
2.06,-22.172089,-0.009570002,1.0720258,0.0,0.9501141,-0.072288506,0.38533065,1.0720258,0.005896572,1.0,0.9498986,-14.457701,77.06613
2.08,-28.200592,-0.009053154,1.0720258,0.0,0.9443764,-0.2923141,0.3891461,1.0720258,0.005896572,1.0,0.9408269,-58.462822,77.829216
2.1,-34.111816,-0.007922491,1.0720258,0.0,0.93657565,-0.50258493,0.38491258,1.0720258,0.005896572,1.0,0.92595506,-100.51698,76.98251
2.12,-39.66208,-0.00622145,1.0720258,0.0,0.92662233,-0.6935207,0.37567148,1.0720258,0.005896572,1.0,0.90607,-138.70415,75.13429
2.14,-44.623535,-0.0040195817,1.0720258,0.0,0.91495615,-0.8565771,0.3648383,1.0720258,0.005896572,1.0,0.88299763,-171.31541,72.96766
2.16,-48.79471,-0.0014084586,1.0720258,0.0,0.9025339,-0.9852749,0.35572138,1.0720258,0.005896572,1.0,0.8593859,-197.05498,71.14428
2.18,-52.008972,0.0015050602,1.0720258,0.0,0.8906947,-1.0758013,0.35104477,1.0720258,0.005896572,1.0,0.8382733,-215.16025,70.208954
2.2,-54.140778,0.0046067107,1.0720258,0.0,0.88093024,-1.126937,0.3525083,1.0720258,0.005896572,1.0,0.82254606,-225.3874,70.50166
2.22,-55.108276,0.007781897,1.0720258,0.0,0.874623,-1.1393461,0.3604389,1.0720258,0.005896572,1.0,0.8144366,-227.86923,72.08778
2.24,-54.874207,0.010920355,1.0720258,0.0,0.8728147,-1.1145737,0.37363082,1.0720258,0.005896572,1.0,0.81518084,-222.91475,74.726166
2.26,-53.444458,0.013917923,1.0720258,0.0,0.87605256,-1.0541813,0.38944215,1.0720258,0.005896572,1.0,0.8248874,-210.83627,77.88843
2.28,-50.866608,0.016676104,1.0720258,0.0,0.88432485,-0.95933115,0.4041593,1.0720258,0.005896572,1.0,0.84259015,-191.86623,80.83186
2.3,-47.22769,0.019100858,1.0720258,0.0,0.8970801,-0.83092874,0.41357017,1.0720258,0.005896572,1.0,0.86641926,-166.18575,82.714035
2.32,-42.652527,0.021102162,1.0720258,0.0,0.91330487,-0.6702047,0.41364524,1.0720258,0.005896572,1.0,0.89383996,-134.04094,82.72905
2.34,-37.301483,0.02259544,1.0720258,0.0,0.93164,-0.47952613,0.401247,1.0720258,0.005896572,1.0,0.92192495,-95.90523,80.2494
2.36,-31.367828,0.023505317,1.0720258,0.0,0.95051897,-0.26321125,0.37476808,1.0720258,0.005896572,1.0,0.9476606,-52.64225,74.95361
2.38,-25.07315,0.023771513,1.0720258,0.0,0.96832454,-0.028089538,0.33460742,1.0720258,0.005896572,1.0,0.96829265,-5.6179075,66.921486
2.4,-18.661133,0.02335597,1.0720258,0.0,0.98356557,0.21634683,0.28335628,1.0720258,0.005896572,1.0,0.9817005,43.269367,56.671257
2.42,-12.388916,0.022249928,1.0720258,0.0,0.99506366,0.45835772,0.22560781,1.0720258,0.005896572,1.0,0.9867618,91.67155,45.121563
2.44,-6.5158997,0.020479294,1.0720258,0.0,1.0021311,0.6849529,0.1673618,1.0720258,0.005896572,1.0,0.9836288,136.99059,33.47236
2.46,-1.2912903,0.018106734,1.0720258,0.0,1.0046953,0.88333994,0.11512307,1.0720258,0.005896572,1.0,0.97381,176.66798,23.024614
2.48,3.05896,0.015229433,1.0720258,0.0,1.0033231,1.0425256,0.07485112,1.0720258,0.005896572,1.0,0.9599699,208.50513,14.970223
2.5,6.3446045,0.011972461,1.0720258,0.0,0.9991187,1.154593,0.050962534,1.0720258,0.005896572,1.0,0.9454315,230.9186,10.192507
2.52,8.421295,0.008479063,1.0720258,0.0,0.99349564,1.2152843,0.04557949,1.0720258,0.005896572,1.0,0.93347317,243.05687,9.115898
2.54,9.197632,0.004900033,1.0720258,0.0,0.9878715,1.2237244,0.05821933,1.0720258,0.005896572,1.0,0.9266158,244.74487,11.643866
2.56,8.63855,0.001384533,1.0720258,0.0,0.9833566,1.1815509,0.08604203,1.0720258,0.005896572,1.0,0.9260998,236.31017,17.208406
2.58,6.766144,-0.0019263134,1.0720258,0.0,0.9805132,1.0919389,0.124603584,1.0720258,0.005896572,1.0,0.93168205,218.38777,24.920717
2.6,3.6575623,-0.004903153,1.0720258,0.0,0.9792511,0.95898527,0.16886179,1.0720258,0.005896572,1.0,0.94176006,191.79706,33.772358
2.62,-0.55859375,-0.0074307057,1.0720258,0.0,0.97888064,0.7876322,0.21409775,1.0720258,0.005896572,1.0,0.9537425,157.52644,42.81955
2.64,-5.707306,-0.009410169,1.0720258,0.0,0.9783017,0.5839964,0.25651038,1.0720258,0.005896572,1.0,0.9645546,116.799286,51.302074
2.66,-11.57431,-0.01076261,1.0720258,0.0,0.9762692,0.35573968,0.2934287,1.0720258,0.005896572,1.0,0.97118026,71.147934,58.685738
2.68,-17.914917,-0.011433238,1.0720258,0.0,0.97167045,0.11219113,0.32322824,1.0720258,0.005896572,1.0,0.97116303,22.438227,64.645645
2.7,-24.464355,-0.011395679,1.0720258,0.0,0.96375465,-0.1359323,0.34513897,1.0720258,0.005896572,1.0,0.96300364,-27.186459,69.027794
2.72,-30.950073,-0.010655108,1.0720258,0.0,0.95228696,-0.37718272,0.35911787,1.0720258,0.005896572,1.0,0.946419,-75.43655,71.82357
2.74,-37.10498,-0.009249281,1.0720258,0.0,0.93761164,-0.6002698,0.3658836,1.0720258,0.005896572,1.0,0.92244124,-120.053955,73.17672
2.76,-42.67981,-0.007246907,1.0720258,0.0,0.9206393,-0.79507756,0.36705315,1.0720258,0.005896572,1.0,0.8933484,-159.01552,73.41063
2.78,-47.45514,-0.0047431216,1.0720258,0.0,0.9027562,-0.9536767,0.36517394,1.0720258,0.005896572,1.0,0.8624058,-190.73534,73.03479
2.8,-51.250732,-0.0018522777,1.0720258,0.0,0.8856669,-1.071076,0.36342213,1.0720258,0.005896572,1.0,0.83340585,-214.21521,72.684425
2.82,-53.932373,0.0013009614,1.0720258,0.0,0.8711682,-1.1454182,0.3648862,1.0720258,0.005896572,1.0,0.810055,-229.08363,72.97724
2.84,-55.414917,0.0045904163,1.0720258,0.0,0.8608836,-1.1774191,0.371656,1.0720258,0.005896572,1.0,0.795333,-235.48381,74.3312
2.86,-55.66211,0.007895014,1.0720258,0.0,0.85599697,-1.1692538,0.38410282,1.0720258,0.005896572,1.0,0.7909902,-233.85077,76.820564
2.88,-54.68445,0.011101975,1.0720258,0.0,0.8570438,-1.1233727,0.40069312,1.0720258,0.005896572,1.0,0.7973057,-224.67453,80.138626
2.9,-52.534943,0.014106855,1.0720258,0.0,0.86381185,-1.0417916,0.41840822,1.0720258,0.005896572,1.0,0.81312716,-208.3583,83.68164
2.92,-49.305817,0.01681208,1.0720258,0.0,0.8753858,-0.92613584,0.4335429,1.0720258,0.005896572,1.0,0.83613956,-185.22717,86.70858
2.94,-45.12494,0.019126132,1.0720258,0.0,0.890331,-0.7782948,0.4425627,1.0720258,0.005896572,1.0,0.8632798,-155.65897,88.51254
2.96,-40.152527,0.020964833,1.0720258,0.0,0.9069711,-0.6012825,0.4427348,1.0720258,0.005896572,1.0,0.89122576,-120.25649,88.54696
2.98,-34.577576,0.022254951,1.0720258,0.0,0.92369306,-0.39983577,0.4324065,1.0720258,0.005896572,1.0,0.916891,-79.967155,86.4813
