Time,Rotor Angle,Rotor Speed,EQ' Volts, ED' Volts,Term Volts,Elec Power Re,Elec Pwr Im,Fld Volts,Mech Power, Satn Factor, Air Gap Volts,Elec MW,Elec MVAr
0.0,-10.806238,0.0,1.037761,0.0,0.99956524,0.26259255,0.117278166,1.037761,0.26214132,1.0,0.99667853,131.29628,58.639084
0.02,-10.806566,-1.6046326E-6,1.037761,0.0,0.9995646,0.26258516,0.11728096,1.037761,0.26214132,1.0,0.996678,131.29259,58.64048
0.04,-10.807875,-2.8278016E-6,1.037761,0.0,0.99956167,0.26255572,0.117292315,1.037761,0.26214132,1.0,0.9966758,131.27786,58.646156
0.06,-10.810024,-3.935938E-6,1.037761,0.0,0.99955696,0.26250726,0.1173111,1.037761,0.26214132,1.0,0.99667215,131.25363,58.65555
0.08,-10.812976,-4.8770585E-6,1.037761,0.0,0.9995506,0.26244044,0.117336616,1.037761,0.26214132,1.0,0.9966672,131.22021,58.66831
0.1,-10.816681,-5.6022973E-6,1.037761,0.0,0.9174385,0.24803329,0.3582545,1.037761,0.26214132,1.0,0.91463214,124.01664,179.12724
0.12,-10.869704,3.469074E-5,1.037761,0.0,0.9173261,0.24727829,0.35861087,1.037761,0.26214132,1.0,0.91453654,123.639145,179.30544
0.14,-11.11636,7.85135E-5,1.037761,0.0,0.9167959,0.24380274,0.3602824,1.037761,0.26214132,1.0,0.9140828,121.90137,180.14119
0.16,-11.55258,1.3351273E-4,1.037761,0.0,0.915842,0.2376825,0.36326665,1.037761,0.26214132,1.0,0.9132608,118.841255,181.63332
0.18,-12.1727,2.0698628E-4,1.037761,0.0,0.91445327,0.22902752,0.36756182,1.037761,0.26214132,1.0,0.91205335,114.51376,183.78091
0.2,-12.969516,3.057901E-4,1.037761,0.0,0.9126172,0.2179829,0.37315992,1.037761,0.26214132,1.0,0.91043895,108.991455,186.57996
0.22,-13.934333,4.3624436E-4,1.037761,0.0,0.91032314,0.20472921,0.38003686,1.037761,0.26214132,1.0,0.9083971,102.36461,190.01843
0.24,-15.057027,6.040391E-4,1.037761,0.0,0.907566,0.18948284,0.38814527,1.037761,0.26214132,1.0,0.90591145,94.74142,194.07263
0.26,-16.326078,8.141431E-4,1.037761,0.0,0.90435004,0.17249386,0.39740807,1.037761,0.26214132,1.0,0.90297425,86.24693,198.70404
0.28,-17.728651,0.0010707194,1.037761,0.0,0.90069157,0.15404293,0.40771374,1.037761,0.26214132,1.0,0.8995901,77.02146,203.85687
0.3,-19.250679,0.0013770552,1.037761,0.0,0.8966203,0.13443433,0.41891727,1.037761,0.26214132,1.0,0.8957776,67.21716,209.45863
0.32,-20.876955,0.001735511,1.037761,0.0,0.8921804,0.11398834,0.43084133,1.037761,0.26214132,1.0,0.89157164,56.99417,215.42067
0.34,-22.591265,0.0021474964,1.037761,0.0,0.88742965,0.09303102,0.4432847,1.037761,0.26214132,1.0,0.88702214,46.51551,221.64235
0.36,-24.37654,0.0026134728,1.037761,0.0,0.8824377,0.07188514,0.45603046,1.037761,0.26214132,1.0,0.88219297,35.94257,228.01523
0.38,-26.215042,0.003132985,1.037761,0.0,0.8772831,0.05085889,0.46885562,1.037761,0.26214132,1.0,0.87715983,25.429445,234.42781
0.4,-28.08855,0.003704721,1.037761,0.0,0.93669945,-0.10419259,0.31387183,1.037761,0.26214132,1.0,0.9362151,-52.096294,156.93591
0.42,-29.913298,0.004718034,1.037761,0.0,0.9284753,-0.13534783,0.3353769,1.037761,0.26214132,1.0,0.9276506,-67.67391,167.68845
0.44,-31.474857,0.0058023473,1.037761,0.0,0.92237735,-0.16216879,0.35063395,1.037761,0.26214132,1.0,0.92118514,-81.0844,175.31697
0.46,-32.75381,0.0069449735,1.037761,0.0,0.91866916,-0.18550877,0.35926735,1.037761,0.26214132,1.0,0.9171026,-92.75439,179.63368
0.48,-33.728405,0.008135591,1.037761,0.0,0.9174646,-0.2058414,0.3612098,1.037761,0.26214132,1.0,0.9155329,-102.9207,180.6049
0.5,-34.374084,0.00936503,1.037761,0.0,0.918752,-0.22313333,0.35662317,1.037761,0.26214132,1.0,0.91648483,-111.566666,178.31158
0.52,-34.6634,0.010623752,1.037761,0.0,0.9224112,-0.23677601,0.3458692,1.037761,0.26214132,1.0,0.91986805,-118.38801,172.9346
0.54,-34.566708,0.011900201,1.037761,0.0,0.92821884,-0.24557571,0.3295255,1.037761,0.26214132,1.0,0.92550004,-122.78786,164.76276
0.56,-34.05356,0.013179193,1.037761,0.0,0.935845,-0.24781351,0.3084262,1.037761,0.26214132,1.0,0.933099,-123.90675,154.2131
0.58,-33.09491,0.014440562,1.037761,0.0,0.9448505,-0.2413971,0.283695,1.037761,0.26214132,1.0,0.94227,-120.69855,141.8475
0.6,-31.666252,0.015658338,1.037761,0.0,0.9546982,-0.22412261,0.2567191,1.037761,0.26214132,1.0,0.9524972,-112.06131,128.35956
0.62,-29.7514,0.01680075,1.037761,0.0,0.9647877,-0.19402577,0.22903429,1.037761,0.26214132,1.0,0.96315587,-97.012886,114.51714
0.64,-27.346867,0.017831258,1.037761,0.0,0.9745166,-0.14975357,0.20211461,1.037761,0.26214132,1.0,0.9735545,-74.876785,101.057304
0.66,-24.46598,0.018710602,1.037761,0.0,0.9833533,-0.09085744,0.17712606,1.037761,0.26214132,1.0,0.98300254,-45.42872,88.563034
0.68,-21.142212,0.019399524,1.037761,0.0,0.9908998,-0.01790621,0.15473568,1.037761,0.26214132,1.0,0.9908863,-8.953105,77.36784
0.7,-17.430977,0.019861646,1.037761,0.0,0.99691653,0.06759719,0.13506593,1.037761,0.26214132,1.0,0.99672496,33.798595,67.53297
0.72,-13.409508,0.02006594,1.037761,0.0,1.0013074,0.16342777,0.11781335,1.037761,0.26214132,1.0,1.0001922,81.71388,58.906673
0.74,-9.174797,0.019988552,1.037761,0.0,1.0040768,0.26685864,0.10247152,1.037761,0.26214132,1.0,1.0011089,133.42932,51.23576
0.76,-4.839981,0.019613998,1.037761,0.0,1.0052886,0.37481043,0.0885557,1.037761,0.26214132,1.0,0.99943244,187.40521,44.27785
0.78,-0.52976227,0.018935993,1.037761,0.0,1.0050439,0.48392317,0.07576292,1.037761,0.26214132,1.0,0.9952602,241.96158,37.88146
0.8,3.6246872,0.017958079,1.037761,0.0,1.0034864,0.59060997,0.06403385,1.037761,0.26214132,1.0,0.988855,295.305,32.016926
0.82,7.4910965,0.016694076,1.037761,0.0,1.0008194,0.6911471,0.053549048,1.037761,0.26214132,1.0,0.9806731,345.57355,26.774525
0.84,10.941238,0.015168235,1.037761,0.0,0.99732083,0.78182626,0.04468293,1.037761,0.26214132,1.0,0.97137356,390.91312,22.341465
0.86,13.855698,0.013414897,1.037761,0.0,0.99333876,0.85915816,0.03794456,1.037761,0.26214132,1.0,0.96178734,429.57907,18.972279
0.88,16.128464,0.011477579,1.037761,0.0,0.98926675,0.92008764,0.033901118,1.037761,0.26214132,1.0,0.9528389,460.04382,16.95056
0.9,17.6707,0.009407457,1.037761,0.0,0.9854984,0.96218926,0.03307724,1.037761,0.26214132,1.0,0.94543,481.09464,16.53862
0.92,18.413803,0.00726135,1.037761,0.0,0.9823793,0.9838074,0.035828546,1.037761,0.26214132,1.0,0.94031066,491.9037,17.914272
0.94,18.311783,0.0050993944,1.037761,0.0,0.9801632,0.98411655,0.042222403,1.037761,0.26214132,1.0,0.937968,492.0583,21.111202
0.96,17.3434,0.002982637,1.037761,0.0,0.97898483,0.9630804,0.0519722,1.037761,0.26214132,1.0,0.938562,481.5402,25.9861
0.98,15.513092,9.7086374E-4,1.037761,0.0,0.9788467,0.9213141,0.06447523,1.037761,0.26214132,1.0,0.94191587,460.65707,32.237614
1.0,12.851715,-8.791023E-4,1.037761,0.0,0.9796147,0.8598881,0.07895539,1.037761,0.26214132,1.0,0.947551,429.94403,39.477695
1.02,9.416458,-0.0025145225,1.037761,0.0,0.9810179,0.7801592,0.09465866,1.037761,0.26214132,1.0,0.9547416,390.0796,47.32933
1.04,5.2901306,-0.0038874317,1.037761,0.0,0.9826583,0.6837109,0.11102021,1.037761,0.26214132,1.0,0.9625757,341.85544,55.510105
1.06,0.5799713,-0.0049552545,1.037761,0.0,0.9840341,0.5724486,0.12775047,1.037761,0.26214132,1.0,0.9700194,286.2243,63.875237
1.08,-4.5847015,-0.0056817844,1.037761,0.0,0.9845854,0.4488126,0.1448188,1.037761,0.26214132,1.0,0.97599936,224.4063,72.4094
1.1,-10.055252,-0.0060387924,1.037761,0.0,0.98376524,0.3160172,0.1623588,1.037761,0.26214132,1.0,0.9795143,158.0086,81.179405
1.12,-15.667908,-0.0060082413,1.037761,0.0,0.9811265,0.17818117,0.1805383,1.037761,0.26214132,1.0,0.9797734,89.09058,90.26915
1.14,-21.249054,-0.0055847033,1.037761,0.0,0.976411,0.040247094,0.1994362,1.037761,0.26214132,1.0,0.97634166,20.123547,99.7181
1.16,-26.62172,-0.0047773262,1.037761,0.0,0.96962136,-0.09235824,0.21896024,1.037761,0.26214132,1.0,0.9692537,-46.17912,109.48012
1.18,-31.612946,-0.0036106452,1.037761,0.0,0.9610549,-0.21426444,0.23881724,1.037761,0.26214132,1.0,0.9590568,-107.13222,119.40862
1.2,-36.06154,-0.002123765,1.037761,0.0,0.95128804,-0.32077053,0.2585311,1.037761,0.26214132,1.0,0.9467576,-160.38527,129.26555
1.22,-39.825287,-3.6784256E-4,1.037761,0.0,0.94111025,-0.40836158,0.27748322,1.037761,0.26214132,1.0,0.93367684,-204.18079,138.74161
1.24,-42.78694,0.0015977041,1.037761,0.0,0.93142146,-0.47497848,0.29495382,1.037761,0.26214132,1.0,0.9212449,-237.48924,147.47691
1.26,-44.858215,0.0037094895,1.037761,0.0,0.92311597,-0.5199844,0.3101477,1.037761,0.26214132,1.0,0.9107948,-259.99222,155.07385
1.28,-45.982178,0.0059040897,1.037761,0.0,0.9169769,-0.5438597,0.32221565,1.037761,0.26214132,1.0,0.9033981,-271.92987,161.10782
1.3,-46.132843,0.0081209,1.037761,0.0,0.9135974,-0.5477213,0.330293,1.037761,0.26214132,1.0,0.899772,-273.86066,165.1465
1.32,-45.31392,0.010303532,1.037761,0.0,0.9133298,-0.53280914,0.3335711,1.037761,0.26214132,1.0,0.90024835,-266.40457,166.78555
1.34,-43.556183,0.01239978,1.037761,0.0,0.91625684,-0.50006765,0.33139926,1.037761,0.26214132,1.0,0.9047809,-250.03383,165.69963
1.36,-40.914795,0.014360521,1.037761,0.0,0.92217785,-0.44993567,0.32340384,1.037761,0.26214132,1.0,0.9129589,-224.96783,161.70192
1.38,-37.467163,0.016138231,1.037761,0.0,0.93060714,-0.38241404,0.30959898,1.037761,0.26214132,1.0,0.92401755,-191.20702,154.79948
1.4,-33.311096,0.017685916,1.037761,0.0,0.94079345,-0.29741552,0.2904692,1.037761,0.26214132,1.0,0.9368565,-148.70776,145.2346
1.42,-28.56398,0.018957235,1.037761,0.0,0.9517729,-0.19533171,0.26700395,1.037761,0.26214132,1.0,0.9500965,-97.665855,133.50198
1.44,-23.36174,0.019908294,1.037761,0.0,0.9624646,-0.0776488,0.24066176,1.037761,0.26214132,1.0,0.96220267,-38.8244,120.33088
1.46,-17.856781,0.020501114,1.037761,0.0,0.9718042,0.052592892,0.21324542,1.037761,0.26214132,1.0,0.9716853,26.296446,106.62271
1.48,-12.2148285,0.020708106,1.037761,0.0,0.9789004,0.19071892,0.18668702,1.037761,0.26214132,1.0,0.97734654,95.35946,93.34351
1.5,-6.609482,0.020516384,1.037761,0.0,0.98317194,0.3308137,0.16277406,1.037761,0.26214132,1.0,0.9785098,165.40686,81.38703
1.52,-1.2150116,0.019930566,1.037761,0.0,0.9844375,0.46651253,0.14287303,1.037761,0.26214132,1.0,0.9751561,233.25627,71.436516
1.54,3.801773,0.018973134,1.037761,0.0,0.98293155,0.59195185,0.12772064,1.037761,0.26214132,1.0,0.967921,295.97592,63.86032
1.56,8.289658,0.017682139,1.037761,0.0,0.9792508,0.7025539,0.11733144,1.037761,0.26214132,1.0,0.95795804,351.27698,58.665718
1.58,12.11911,0.016106945,1.037761,0.0,0.97425044,0.79542476,0.11103661,1.037761,0.26214132,1.0,0.9467256,397.71237,55.518307
1.6,15.186844,0.014303244,1.037761,0.0,0.968921,0.8693069,0.10763902,1.037761,0.26214132,1.0,0.9357644,434.65347,53.81951
1.62,17.417648,0.012328533,1.037761,0.0,0.9642649,0.9241814,0.10564609,1.037761,0.26214132,1.0,0.9265145,462.0907,52.823044
1.64,18.764084,0.010238969,1.037761,0.0,0.9611841,0.960684,0.10353746,1.037761,0.26214132,1.0,0.92018867,480.342,51.76873
1.66,19.205292,0.008087952,1.037761,0.0,0.9603821,0.97951555,0.10002639,1.037761,0.26214132,1.0,0.9176889,489.75778,50.013195
1.68,18.74527,0.0059263483,1.037761,0.0,0.9622812,0.98097825,0.094279185,1.037761,0.26214132,1.0,0.9195458,490.48914,47.13959
1.7,17.411346,0.0038038772,1.037761,0.0,0.9669575,0.9647359,0.08606827,1.037761,0.26214132,1.0,0.92586577,482.36795,43.034138
1.72,15.253693,0.0017709644,1.037761,0.0,0.9741064,0.929863,0.07584769,1.037761,0.26214132,1.0,0.9362827,464.9315,37.923847
1.74,12.345001,-1.197916E-4,1.037761,0.0,0.98304546,0.8752017,0.06473794,1.037761,0.26214132,1.0,0.94992936,437.60086,32.36897
1.76,8.78067,-0.0018133918,1.037761,0.0,0.9927714,0.799982,0.0544055,1.037761,0.26214132,1.0,0.96545994,399.991,27.20275
1.78,4.67865,-0.0032541116,1.037761,0.0,1.0020766,0.7045795,0.04683289,1.037761,0.26214132,1.0,0.98115796,352.28973,23.416445
1.8,0.1772461,-0.0043892832,1.037761,0.0,1.0097175,0.59117407,0.0439938,1.037761,0.26214132,1.0,0.9951497,295.58704,21.9969
1.82,-4.5682373,-0.0051746937,1.037761,0.0,1.0146117,0.46406046,0.047477268,1.037761,0.26214132,1.0,1.0057038,232.03023,23.738634
1.84,-9.392517,-0.0055804234,1.037761,0.0,1.016023,0.32941163,0.05814938,1.037761,0.26214132,1.0,1.0115505,164.70581,29.07469
1.86,-14.128632,-0.005595515,1.037761,0.0,1.0136881,0.1945006,0.07594308,1.037761,0.26214132,1.0,1.0121274,97.2503,37.971542
1.88,-18.618134,-0.0052300813,1.037761,0.0,1.007853,0.06660217,0.09983996,1.037761,0.26214132,1.0,1.0076691,33.301086,49.919983
1.9,-22.719604,-0.0045142137,1.037761,0.0,0.9992134,-0.048064012,0.12805681,1.037761,0.26214132,1.0,0.9991167,-24.032005,64.028404
1.92,-26.316864,-0.0034941016,1.037761,0.0,0.9887723,-0.14504743,0.15838511,1.037761,0.26214132,1.0,0.98788285,-72.52371,79.19256
1.94,-29.322266,-0.002226533,1.037761,0.0,0.97765857,-0.22187063,0.18857992,1.037761,0.26214132,1.0,0.9755523,-110.93532,94.289955
1.96,-31.678436,-7.7321404E-4,1.037761,0.0,0.9669416,-0.27781546,0.21670362,1.037761,0.26214132,1.0,0.96360046,-138.90773,108.351814
1.98,-33.35681,8.0399704E-4,1.037761,0.0,0.9574816,-0.31345966,0.24135363,1.037761,0.26214132,1.0,0.95318407,-156.72983,120.67682
2.0,-34.354523,0.0024464296,1.037761,0.0,0.9498363,-0.3301945,0.2617465,1.037761,0.26214132,1.0,0.9450278,-165.09724,130.87325
2.02,-34.6911,0.004100577,1.037761,0.0,0.9442305,-0.3298576,0.27768245,1.037761,0.26214132,1.0,0.9394032,-164.92879,138.84123
2.04,-34.40439,0.0057191267,1.037761,0.0,0.9405877,-0.31453717,0.28942746,1.037761,0.26214132,1.0,0.9361824,-157.26859,144.71373
2.06,-33.547546,0.0072615193,1.037761,0.0,0.9386097,-0.28650358,0.29754895,1.037761,0.26214132,1.0,0.93494844,-143.25179,148.77448
2.08,-32.185486,0.008694352,1.037761,0.0,0.9378852,-0.24817209,0.3027341,1.037761,0.26214132,1.0,0.93513733,-124.086044,151.36705
2.1,-30.39154,0.009991626,1.037761,0.0,0.93800294,-0.20200118,0.30561715,1.037761,0.26214132,1.0,0.9361835,-101.000595,152.80858
2.12,-28.24405,0.011134654,1.037761,0.0,0.93864214,-0.15030111,0.3066431,1.037761,0.26214132,1.0,0.93763596,-75.15056,153.32155
2.14,-25.822845,0.012111346,1.037761,0.0,0.9396204,-0.09498249,0.3059952,1.037761,0.26214132,1.0,0.939219,-47.491245,152.9976
2.16,-23.206116,0.012914833,1.037761,0.0,0.94088966,-0.037376586,0.30360264,1.037761,0.26214132,1.0,0.94082767,-18.688293,151.80132
2.18,-20.468079,0.013541684,1.037761,0.0,0.9424985,0.021789122,0.29920974,1.037761,0.26214132,1.0,0.9424774,10.894561,149.60487
2.2,-17.678131,0.01399024,1.037761,0.0,0.9445383,0.08221169,0.2924736,1.037761,0.26214132,1.0,0.9442392,41.105843,146.2368
2.22,-14.90036,0.014259582,1.037761,0.0,0.9471041,0.14371467,0.2830514,1.037761,0.26214132,1.0,0.94619244,71.85733,141.5257
2.24,-12.194733,0.014349389,1.037761,0.0,0.9502739,0.20593356,0.27066547,1.037761,0.26214132,1.0,0.94840723,102.96678,135.33273
2.26,-9.61731,0.014260635,1.037761,0.0,0.954105,0.26811373,0.25514692,1.037761,0.26214132,1.0,0.95095164,134.05687,127.57346
2.28,-7.220886,0.013996761,1.037761,0.0,0.95863307,0.32904223,0.23648363,1.037761,0.26214132,1.0,0.9539022,164.52112,118.24181
2.3,-5.0538635,0.013564905,1.037761,0.0,0.96386343,0.38712367,0.21487375,1.037761,0.26214132,1.0,0.95734453,193.56184,107.436874
2.32,-3.1585083,0.012976841,1.037761,0.0,0.9697516,0.44054082,0.19078794,1.037761,0.26214132,1.0,0.96135277,220.27042,95.393974
2.34,-1.5688171,0.012249395,1.037761,0.0,0.97617775,0.48746508,0.16501752,1.037761,0.26214132,1.0,0.9659529,243.73254,82.50876
2.36,-0.30810547,0.011404248,1.037761,0.0,0.9829269,0.5262808,0.13868338,1.037761,0.26214132,1.0,0.97108126,263.1404,69.34169
2.38,0.61294556,0.010467102,1.037761,0.0,0.98968893,0.5558005,0.113170385,1.037761,0.26214132,1.0,0.9765594,277.90024,56.585194
2.4,1.1967468,0.0094662765,1.037761,0.0,0.9960876,0.5754202,0.08998096,1.037761,0.26214132,1.0,0.9820998,287.7101,44.99048
2.42,1.4582214,0.008430946,1.037761,0.0,1.0017381,0.5851825,0.070516765,1.037761,0.26214132,1.0,0.9873509,292.59125,35.25838
2.44,1.4225769,0.0073893154,1.037761,0.0,1.0063187,0.5856993,0.05584348,1.037761,0.26214132,1.0,0.9919723,292.84967,27.92174
2.46,1.1220703,0.0063671363,1.037761,0.0,1.0096334,0.57795525,0.04650911,1.037761,0.26214132,1.0,0.99571306,288.97763,23.254555
2.48,0.59207153,0.005386857,1.037761,0.0,1.0116454,0.5630671,0.042470027,1.037761,0.26214132,1.0,0.99846435,281.53354,21.235014
2.5,-0.13214111,0.004467436,1.037761,0.0,1.0124718,0.5421089,0.043139465,1.037761,0.26214132,1.0,1.0002697,271.05444,21.569733
2.52,-1.0180359,0.0036245699,1.037761,0.0,1.0123436,0.51607126,0.047535237,1.037761,0.26214132,1.0,1.0012904,258.03564,23.767618
2.54,-2.03656,0.0028709357,1.037761,0.0,1.0115441,0.4859386,0.054492112,1.037761,0.26214132,1.0,1.0017422,242.9693,27.246056
2.56,-3.1623535,0.002216177,1.037761,0.0,1.0103387,0.4527853,0.062898695,1.037761,0.26214132,1.0,1.0018239,226.39265,31.449348
2.58,-4.3728027,0.0016666513,1.037761,0.0,1.0089121,0.41779768,0.07192215,1.037761,0.26214132,1.0,1.0016567,208.89885,35.961075
2.6,-5.6476135,0.0012252152,1.037761,0.0,1.0073266,0.3821753,0.08117002,1.037761,0.26214132,1.0,1.0012496,191.08765,40.58501
2.62,-6.968628,8.913545E-4,1.037761,0.0,1.0055132,0.34694338,0.09073902,1.037761,0.26214132,1.0,1.0004985,173.4717,45.36951
2.64,-8.319916,6.6187663E-4,1.037761,0.0,1.0033,0.31275845,0.10112824,1.037761,0.26214132,1.0,0.99921775,156.37923,50.56412
2.66,-9.688477,5.321079E-4,1.037761,0.0,1.0004708,0.2797794,0.113032006,1.037761,0.26214132,1.0,0.9971961,139.88971,56.516003
2.68,-11.064545,4.973569E-4,1.037761,0.0,0.9968378,0.24766918,0.12707368,1.037761,0.26214132,1.0,0.9942632,123.83459,63.53684
2.7,-12.440979,5.5424194E-4,1.037761,0.0,0.9923051,0.21575348,0.14356634,1.037761,0.26214132,1.0,0.99034303,107.87674,71.78317
2.72,-13.812073,7.014409E-4,1.037761,0.0,0.9869029,0.18331338,0.16238144,1.037761,0.26214132,1.0,0.9854791,91.65669,81.19072
2.74,-15.172241,9.395423E-4,1.037761,0.0,0.9807846,0.14993283,0.18295746,1.037761,0.26214132,1.0,0.97982633,74.966415,91.47873
2.76,-16.51358,0.0012699259,1.037761,0.0,0.9741981,0.1157913,0.20441946,1.037761,0.26214132,1.0,0.97362286,57.89565,102.20973
2.78,-17.824677,0.0016929358,1.037761,0.0,0.9674513,0.081771106,0.22573817,1.037761,0.26214132,1.0,0.96716243,40.88555,112.86909
2.8,-19.09024,0.0022059462,1.037761,0.0,0.96088636,0.049324892,0.24585967,1.037761,0.26214132,1.0,0.9607806,24.662447,122.92983
2.82,-20.291565,0.0028020008,1.037761,0.0,0.9548665,0.020125449,0.2637825,1.037761,0.26214132,1.0,0.95484877,10.062724,131.89125
2.84,-21.40857,0.0034695652,1.037761,0.0,0.9497567,-0.0043875575,0.27860603,1.037761,0.26214132,1.0,0.9497558,-2.1937788,139.30301
2.86,-22.421143,0.0041935556,1.037761,0.0,0.94589025,-0.023389922,0.28958172,1.037761,0.26214132,1.0,0.9458661,-11.694962,144.79086
2.88,-23.31134,0.004957317,1.037761,0.0,0.94351894,-0.036854614,0.29618907,1.037761,0.26214132,1.0,0.9434588,-18.427307,148.09453
2.9,-24.06311,0.005744906,1.037761,0.0,0.9427639,-0.045480896,0.29821563,1.037761,0.26214132,1.0,0.9426722,-22.740448,149.10782
2.92,-24.661896,0.006542982,1.037761,0.0,0.943589,-0.050414883,0.2958095,1.037761,0.26214132,1.0,0.94347644,-25.207441,147.90475
2.94,-25.092682,0.0073417705,1.037761,0.0,0.9458101,-0.05286291,0.2894665,1.037761,0.26214132,1.0,0.94568664,-26.431454,144.73325
2.96,-25.33783,0.008134899,1.037761,0.0,0.94914114,-0.053698305,0.2799367,1.037761,0.26214132,1.0,0.9490142,-26.849152,139.96835
2.98,-25.37558,0.008918157,1.037761,0.0,0.9532635,-0.053153183,0.26806614,1.037761,0.26214132,1.0,0.95313966,-26.576591,134.03307
