Time,Rotor Angle,Rotor Speed,EQ' Volts, ED' Volts,Term Volts,Elec Power Re,Elec Pwr Im,Fld Volts,Mech Power, Satn Factor, Air Gap Volts,Elec MW,Elec MVAr
0.0,14.184481,0.0,1.0626888,0.0,0.9995074,0.9315641,0.08574969,1.0626888,0.9325182,1.0,0.96428996,372.62564,34.299877
0.02,14.184803,3.3928663E-6,1.0626888,0.0,0.99950653,0.93157077,0.08575073,1.0626888,0.9325182,1.0,0.9642885,372.6283,34.300293
0.04,14.186073,6.026222E-6,1.0626888,0.0,0.999503,0.93159705,0.08575408,1.0626888,0.9325182,1.0,0.96428275,372.63882,34.301632
0.06,14.188147,8.534913E-6,1.0626888,0.0,0.9994973,0.93164027,0.08575947,1.0626888,0.9325182,1.0,0.9642735,372.6561,34.303787
0.08,14.1909485,1.0873968E-5,1.0626888,0.0,0.9994895,0.9316979,0.08576713,1.0626888,0.9325182,1.0,0.96426094,372.67917,34.30685
0.1,14.19437,1.3005929E-5,1.0626888,0.0,0.8607308,0.65467244,0.5083233,1.0626888,0.9325182,1.0,0.8406549,261.869,203.32933
0.12,14.23074,8.03787E-4,1.0626888,0.0,0.86064494,0.65522134,0.5083839,1.0626888,0.9325182,1.0,0.8405329,262.08853,203.35358
0.14,14.396137,0.0015803612,1.0626888,0.0,0.8602532,0.6576975,0.50866365,1.0626888,0.9325182,1.0,0.8399776,263.079,203.46545
0.16,14.685557,0.0023375037,1.0626888,0.0,0.85955447,0.6619974,0.50917995,1.0626888,0.9325182,1.0,0.83899254,264.79895,203.67198
0.18,15.090116,0.0030704136,1.0626888,0.0,0.8585453,0.6679428,0.5099649,1.0626888,0.9325182,1.0,0.83758247,267.17712,203.98595
0.2,15.597334,0.0037749135,1.0626888,0.0,0.8572235,0.67529184,0.5110583,1.0626888,0.9325182,1.0,0.835757,270.11673,204.42331
0.22,16.191608,0.0044476134,1.0626888,0.0,0.85559034,0.6837523,0.5125021,1.0626888,0.9325182,1.0,0.83353233,273.50092,205.00082
0.24,16.854725,0.0050860294,1.0626888,0.0,0.8536541,0.6929992,0.5143316,1.0626888,0.9325182,1.0,0.83093435,277.19968,205.73264
0.26,17.566513,0.0056886533,1.0626888,0.0,0.85143054,0.7026917,0.51657164,1.0626888,0.9325182,1.0,0.8279991,281.07666,206.62866
0.28,18.305515,0.0062549682,1.0626888,0.0,0.84894615,0.7124926,0.51922995,1.0626888,0.9325182,1.0,0.8247744,284.99704,207.69199
0.3,19.049671,0.006785415,1.0626888,0.0,0.84623647,0.72208345,0.5222969,1.0626888,0.9325182,1.0,0.8213178,288.83337,208.91876
0.32,19.777044,0.0072813127,1.0626888,0.0,0.84334564,0.7311797,0.5257448,1.0626888,0.9325182,1.0,0.817695,292.4719,210.29791
0.34,20.466434,0.0077447426,1.0626888,0.0,0.8403249,0.7395387,0.5295297,1.0626888,0.9325182,1.0,0.8139775,295.8155,211.81187
0.36,21.09796,0.008178413,1.0626888,0.0,0.8372287,0.74696654,0.53359616,1.0626888,0.9325182,1.0,0.8102379,298.78662,213.43846
0.38,21.653526,0.008585511,1.0626888,0.0,0.8341126,0.7533187,0.53788185,1.0626888,0.9325182,1.0,0.8065468,301.32748,215.15274
0.4,22.117249,0.008969554,1.0626888,0.0,0.96341586,0.9469248,0.18480098,1.0626888,0.9325182,1.0,0.9255866,378.76993,73.920395
0.42,22.441353,0.008808852,1.0626888,0.0,0.95876276,0.9358219,0.20065784,1.0626888,0.9325182,1.0,0.92164654,374.32877,80.26314
0.44,22.517075,0.008681687,1.0626888,0.0,0.9555992,0.9253676,0.21217519,1.0626888,0.9325182,1.0,0.919199,370.14703,84.87008
0.46,22.348862,0.008585378,1.0626888,0.0,0.9541886,0.91598517,0.21861644,1.0626888,0.9325182,1.0,0.9184822,366.39407,87.44658
0.48,21.947376,0.008516278,1.0626888,0.0,0.95464253,0.9078411,0.21967927,1.0626888,0.9325182,1.0,0.9195976,363.13644,87.871704
0.5,21.328777,0.008470458,1.0626888,0.0,0.9569236,0.9009211,0.21544747,1.0626888,0.9325182,1.0,0.92250633,360.36844,86.178986
0.52,20.514393,0.00844418,1.0626888,0.0,0.9608518,0.89509046,0.20636299,1.0626888,0.9325182,1.0,0.92703056,358.0362,82.5452
0.54,19.530441,0.008434211,1.0626888,0.0,0.9661129,0.89012617,0.19322339,1.0626888,0.9325182,1.0,0.9328611,356.05048,77.28935
0.56,18.408005,0.008438052,1.0626888,0.0,0.97227234,0.8857269,0.1771904,1.0626888,0.9325182,1.0,0.93957007,354.29077,70.87616
0.58,17.182823,0.008454157,1.0626888,0.0,0.9788018,0.88151014,0.1597653,1.0626888,0.9325182,1.0,0.946639,352.60406,63.90612
0.6,15.894897,0.008482144,1.0626888,0.0,0.9851291,0.8770254,0.14268135,1.0626888,0.9325182,1.0,0.9535094,350.81018,57.072536
0.62,14.5877,0.008522946,1.0626888,0.0,0.9907104,0.87180734,0.12768713,1.0626888,0.9325182,1.0,0.9596537,348.72293,51.074852
0.64,13.306885,0.00857876,1.0626888,0.0,0.99511534,0.8654897,0.11624167,1.0626888,0.9325182,1.0,0.96465397,346.1959,46.49667
0.66,12.098465,0.008652642,1.0626888,0.0,0.9981039,0.8579608,0.109197065,1.0626888,0.9325182,1.0,0.9682708,343.18433,43.678825
0.68,11.006683,0.008747654,1.0626888,0.0,0.99966246,0.84952253,0.106605485,1.0626888,0.9325182,1.0,0.970469,339.80902,42.642193
0.7,10.071831,0.008865604,1.0626888,0.0,0.99998707,0.8409698,0.1077273,1.0626888,0.9325182,1.0,0.97139674,336.3879,43.09092
0.72,9.328079,0.009005674,1.0626888,0.0,0.9994175,0.83353937,0.11125517,1.0626888,0.9325182,1.0,0.9713209,333.41574,44.502068
0.74,8.801788,0.009163313,1.0626888,0.0,0.9983473,0.82872057,0.11564615,1.0626888,0.9325182,1.0,0.9705486,331.48822,46.25846
0.76,8.510178,0.009329756,1.0626888,0.0,0.99714476,0.8279802,0.11944206,1.0626888,0.9325182,1.0,0.96936196,331.19208,47.776825
0.78,8.460388,0.009492366,1.0626888,0.0,0.9961004,0.8324689,0.1214885,1.0626888,0.9325182,1.0,0.9679809,332.98758,48.595398
0.8,8.648979,0.009635766,1.0626888,0.0,0.995406,0.84278715,0.121043414,1.0626888,0.9325182,1.0,0.966554,337.11487,48.417366
0.82,9.061958,0.009743571,1.0626888,0.0,0.9951492,0.85883874,0.117818296,1.0626888,0.9325182,1.0,0.9651625,343.5355,47.12732
0.84,9.675232,0.009800429,1.0626888,0.0,0.9953177,0.8797954,0.11198389,1.0626888,0.9325182,1.0,0.96383107,351.91815,44.793556
0.86,10.455673,0.0097940555,1.0626888,0.0,0.9958037,0.9041789,0.1041629,1.0626888,0.9325182,1.0,0.96253383,361.67157,41.66516
0.88,11.362762,0.009716917,1.0626888,0.0,0.99641585,0.9300545,0.09537864,1.0626888,0.9325182,1.0,0.9612015,372.0218,38.151455
0.9,12.350876,0.00956727,1.0626888,0.0,0.996904,0.9553282,0.08692646,1.0626888,0.9325182,1.0,0.9597312,382.1313,34.770584
0.92,13.37175,0.0093492875,1.0626888,0.0,0.99700594,0.9780919,0.080145925,1.0626888,0.9325182,1.0,0.95800817,391.23676,32.05837
0.94,14.3771515,0.009072215,1.0626888,0.0,0.99650997,0.99691904,0.0761272,1.0626888,0.9325182,1.0,0.9559432,398.7676,30.45088
0.96,15.321869,0.008748771,1.0626888,0.0,0.9953156,1.0110404,0.07545149,1.0626888,0.9325182,1.0,0.953514,404.41617,30.180597
0.98,16.165756,0.008393213,1.0626888,0.0,0.99347144,1.0203147,0.07806167,1.0626888,0.9325182,1.0,0.9507996,408.1259,31.224669
1.0,16.875778,0.008019638,1.0626888,0.0,0.99116963,1.0250444,0.08332878,1.0626888,0.9325182,1.0,0.9479876,410.01776,33.331512
1.02,17.427032,0.007640906,1.0626888,0.0,0.9887008,1.0257103,0.09027353,1.0626888,0.9325182,1.0,0.94534844,410.28415,36.109413
1.04,17.80339,0.007268328,1.0626888,0.0,0.9863871,1.0227436,0.0978429,1.0626888,0.9325182,1.0,0.9431852,409.09744,39.13716
1.06,17.99768,0.006911936,1.0626888,0.0,0.9845157,1.0164092,0.10514048,1.0626888,0.9325182,1.0,0.9417746,406.56366,42.05619
1.08,18.011307,0.006580994,1.0626888,0.0,0.9832899,1.006803,0.11155732,1.0626888,0.9325182,1.0,0.9413161,402.72122,44.62293
1.1,17.854141,0.006284437,1.0626888,0.0,0.98280305,0.9939434,0.1168041,1.0626888,0.9325182,1.0,0.94189674,397.57736,46.72164
1.12,17.543915,0.006031013,1.0626888,0.0,0.9830324,0.9778949,0.12088667,1.0626888,0.9325182,1.0,0.9434735,391.15796,48.354668
1.14,17.105347,0.0058290605,1.0626888,0.0,0.98384506,0.95888704,0.12405625,1.0626888,0.9325182,1.0,0.94587237,383.5548,49.6225
1.16,16.56932,0.005685982,1.0626888,0.0,0.98501277,0.9373912,0.1267646,1.0626888,0.9325182,1.0,0.9488003,374.95648,50.705837
1.18,15.971313,0.005607545,1.0626888,0.0,0.98623747,0.9141349,0.12961216,1.0626888,0.9325182,1.0,0.951876,365.65396,51.844864
1.2,15.349503,0.0055972063,1.0626888,0.0,0.9871865,0.89004916,0.13328357,1.0626888,0.9325182,1.0,0.9546747,356.01965,53.313427
1.22,14.7425995,0.005655628,1.0626888,0.0,0.9875452,0.8661649,0.13843004,1.0626888,0.9325182,1.0,0.95679414,346.46597,55.372017
1.24,14.187454,0.005780519,1.0626888,0.0,0.9870788,0.84349895,0.1455095,1.0626888,0.9325182,1.0,0.95792603,337.39957,58.2038
1.26,13.716766,0.0059667886,1.0626888,0.0,0.98569393,0.8229672,0.15460649,1.0626888,0.9325182,1.0,0.9579233,329.18686,61.842598
1.28,13.356964,0.006206901,1.0626888,0.0,0.98347896,0.8053634,0.1653026,1.0626888,0.9325182,1.0,0.9568385,322.14536,66.12104
1.3,13.127167,0.0064912383,1.0626888,0.0,0.9807039,0.79139173,0.17666611,1.0626888,0.9325182,1.0,0.9549174,316.5567,70.66644
1.32,13.038223,0.00680835,1.0626888,0.0,0.9777747,0.7817213,0.18738678,1.0626888,0.9325182,1.0,0.9525454,312.6885,74.95471
1.34,13.092621,0.0071450598,1.0626888,0.0,0.9751516,0.7769923,0.196019,1.0626888,0.9325182,1.0,0.9501619,310.79694,78.4076
1.36,13.284821,0.0074865944,1.0626888,0.0,0.97325736,0.7777717,0.20125437,1.0626888,0.9325182,1.0,0.9481667,311.10867,80.50175
1.38,13.601471,0.0078168865,1.0626888,0.0,0.9723994,0.7844353,0.20214753,1.0626888,0.9325182,1.0,0.94684803,313.7741,80.85901
1.4,14.022278,0.008119243,1.0626888,0.0,0.9727233,0.7970259,0.1982571,1.0626888,0.9325182,1.0,0.94634265,318.81036,79.30284
1.42,14.520416,0.008377394,1.0626888,0.0,0.9742011,0.8151319,0.1896977,1.0626888,0.9325182,1.0,0.9466336,326.05276,75.87908
1.44,15.063446,0.008576834,1.0626888,0.0,0.9766457,0.83782506,0.17712879,1.0626888,0.9325182,1.0,0.9475731,335.13004,70.85152
1.46,15.614975,0.008706277,1.0626888,0.0,0.979746,0.86367625,0.16169232,1.0626888,0.9325182,1.0,0.948923,345.4705,64.676926
1.48,16.13623,0.008758972,1.0626888,0.0,0.9831093,0.89087385,0.14490631,1.0626888,0.9325182,1.0,0.9503965,356.34955,57.962524
1.5,16.588669,0.008733589,1.0626888,0.0,0.98631114,0.9174284,0.12850371,1.0626888,0.9325182,1.0,0.95169973,366.97134,51.401485
1.52,16.93686,0.008634471,1.0626888,0.0,0.988948,0.9414401,0.11421383,1.0626888,0.9325182,1.0,0.9525669,376.57605,45.68553
1.54,17.151382,0.008471087,1.0626888,0.0,0.9906934,0.96137947,0.10349843,1.0626888,0.9325182,1.0,0.9527935,384.5518,41.399372
1.56,17.211319,0.008256732,1.0626888,0.0,0.9913551,0.976309,0.09727848,1.0626888,0.9325182,1.0,0.95227176,390.5236,38.911392
1.58,17.105835,0.008006698,1.0626888,0.0,0.99091977,0.9859796,0.09573439,1.0626888,0.9325182,1.0,0.9510237,394.39185,38.293755
1.6,16.834732,0.0077362917,1.0626888,0.0,0.98957276,0.99077624,0.09824529,1.0626888,0.9325182,1.0,0.94922215,396.3105,39.29812
1.62,16.408035,0.00745914,1.0626888,0.0,0.98767686,0.9915306,0.10351613,1.0626888,0.9325182,1.0,0.94718254,396.61224,41.406452
1.64,15.844437,0.0071861246,1.0626888,0.0,0.9857125,0.9892727,0.109849155,1.0626888,0.9325182,1.0,0.9453226,395.70908,43.939663
1.66,15.169525,0.006925029,1.0626888,0.0,0.9841895,0.98499876,0.11548549,1.0626888,0.9325182,1.0,0.94409066,393.9995,46.194195
1.68,14.414093,0.0066808006,1.0626888,0.0,0.9835548,0.97952217,0.118914425,1.0626888,0.9325182,1.0,0.9438832,391.80887,47.56577
1.7,13.612213,0.006456172,1.0626888,0.0,0.9841157,0.973414,0.11908755,1.0626888,0.9325182,1.0,0.94497097,389.3656,47.635017
1.72,12.800507,0.0062523796,1.0626888,0.0,0.98599195,0.9670171,0.115537465,1.0626888,0.9325182,1.0,0.9474468,386.80685,46.214985
1.74,12.016296,0.0060698083,1.0626888,0.0,0.9890961,0.9604901,0.10840974,1.0626888,0.9325182,1.0,0.95120406,384.19604,43.363895
1.76,11.296967,0.005908483,1.0626888,0.0,0.9931429,0.95386595,0.09844719,1.0626888,0.9325182,1.0,0.9559401,381.5464,39.378876
1.78,10.678314,0.005768408,1.0626888,0.0,0.99768174,0.9470863,0.0869209,1.0626888,0.9325182,1.0,0.96118915,378.8345,34.76836
1.8,10.192841,0.005649798,1.0626888,0.0,1.0021509,0.9400288,0.075504206,1.0626888,0.9325182,1.0,0.9663765,376.0115,30.201683
1.82,9.868103,0.005553263,1.0626888,0.0,1.0059502,0.93250674,0.06607538,1.0626888,0.9325182,1.0,0.9708943,373.0027,26.430151
1.84,9.724152,0.0054799714,1.0626888,0.0,1.0085286,0.9242856,0.060436703,1.0626888,0.9325182,1.0,0.97419,369.71423,24.17468
1.86,9.772461,0.005431758,1.0626888,0.0,1.0094734,0.91513324,0.059981927,1.0626888,0.9325182,1.0,0.9758557,366.05328,23.992771
1.88,10.014374,0.0054110405,1.0626888,0.0,1.0085839,0.904914,0.06539777,1.0626888,0.9325182,1.0,0.97569543,361.9656,26.159107
1.9,10.441711,0.005420452,1.0626888,0.0,1.0059092,0.89371645,0.076484144,1.0626888,0.9325182,1.0,0.9737549,357.48657,30.593658
1.92,11.0372925,0.005462115,1.0626888,0.0,1.0017352,0.8819572,0.0921798,1.0626888,0.9325182,1.0,0.97030044,352.78287,36.871918
1.94,11.777222,0.0055366913,1.0626888,0.0,0.99652404,0.87038183,0.11079593,1.0626888,0.9325182,1.0,0.9657567,348.15274,44.31837
1.96,12.63269,0.0056425175,1.0626888,0.0,0.9908226,0.8599608,0.13037214,1.0626888,0.9325182,1.0,0.9606209,343.9843,52.148853
1.98,13.571838,0.0057751443,1.0626888,0.0,0.9851729,0.85167396,0.14903493,1.0626888,0.9325182,1.0,0.9553843,340.6696,59.61397
2.0,14.561371,0.00592751,1.0626888,0.0,0.98004186,0.8462857,0.16526054,1.0626888,0.9325182,1.0,0.95047593,338.51428,66.10422
2.02,15.567139,0.006090743,1.0626888,0.0,0.97578275,0.8441527,0.17800692,1.0626888,0.9325182,1.0,0.94623566,337.66107,71.20277
2.04,16.555145,0.006255426,1.0626888,0.0,0.97262126,0.8451429,0.1867396,1.0626888,0.9325182,1.0,0.94290435,338.05716,74.69584
2.06,17.491882,0.0064129983,1.0626888,0.0,0.9706562,0.8486611,0.19139367,1.0626888,0.9325182,1.0,0.94062483,339.46445,76.55747
2.08,18.345276,0.006556981,1.0626888,0.0,0.96986514,0.8537843,0.1923086,1.0626888,0.9325182,1.0,0.93943864,341.51373,76.92344
2.1,19.085938,0.0066837426,1.0626888,0.0,0.9701096,0.859473,0.1901575,1.0626888,0.9325182,1.0,0.9392776,343.78918,76.063
2.12,19.688812,0.006792612,1.0626888,0.0,0.97114366,0.8648191,0.18586525,1.0626888,0.9325182,1.0,0.93995494,345.92764,74.3461
2.14,20.134521,0.006885299,1.0626888,0.0,0.97263396,0.86925817,0.18050914,1.0626888,0.9325182,1.0,0.94116867,347.70328,72.20365
2.16,20.41095,0.006964768,1.0626888,0.0,0.9742,0.8727032,0.17518023,1.0626888,0.9325182,1.0,0.9425333,349.08127,70.07209
2.18,20.513702,0.0070338375,1.0626888,0.0,0.97547823,0.87554383,0.17081048,1.0626888,0.9325182,1.0,0.9436447,350.21753,68.32419
2.2,20.445648,0.0070938915,1.0626888,0.0,0.97619796,0.8785236,0.16798195,1.0626888,0.9325182,1.0,0.9441682,351.40942,67.19278
2.22,20.215881,0.0071440306,1.0626888,0.0,0.97624826,0.882529,0.16678423,1.0626888,0.9325182,1.0,0.94392246,353.0116,66.71369
2.24,19.837402,0.0071808756,1.0626888,0.0,0.9757105,0.888353,0.1667692,1.0626888,0.9325182,1.0,0.94293064,355.3412,66.70768
2.26,19.325287,0.0071990136,1.0626888,0.0,0.9748451,0.89649963,0.16704437,1.0626888,0.9325182,1.0,0.94141984,358.59985,66.81775
2.28,18.694885,0.007191942,1.0626888,0.0,0.9740333,0.90708613,0.1664738,1.0626888,0.9325182,1.0,0.93976986,362.83444,66.58952
2.3,17.96112,0.00715321,1.0626888,0.0,0.9736943,0.91982543,0.16393115,1.0626888,0.9325182,1.0,0.93843085,367.93018,65.57246
2.32,17.138947,0.007077531,1.0626888,0.0,0.97419643,0.93409777,0.15853624,1.0626888,0.9325182,1.0,0.9378283,373.6391,63.414497
2.34,16.243713,0.0069616465,1.0626888,0.0,0.9757811,0.94904447,0.14983533,1.0626888,0.9325182,1.0,0.9382796,379.6178,59.93413
2.36,15.292694,0.006804896,1.0626888,0.0,0.9785112,0.96368796,0.13790336,1.0626888,0.9325182,1.0,0.9399318,385.4752,55.161346
2.38,14.305725,0.006609444,1.0626888,0.0,0.9822529,0.97702706,0.12337017,1.0626888,0.9325182,1.0,0.94273293,390.81082,49.34807
2.4,13.305817,0.006380249,1.0626888,0.0,0.9866911,0.98810405,0.10737396,1.0626888,0.9325182,1.0,0.94644034,395.2416,42.949585
2.42,12.318359,0.006124885,1.0626888,0.0,0.9913786,0.9960118,0.09144471,1.0626888,0.9325182,1.0,0.9506688,398.40472,36.577885
2.44,11.370117,0.005853384,1.0626888,0.0,0.9958104,0.99985665,0.07732275,1.0626888,0.9325182,1.0,0.9549692,399.94266,30.9291
2.46,10.487488,0.005578193,1.0626888,0.0,0.99950814,0.99872243,0.06671922,1.0626888,0.9325182,1.0,0.9589187,399.48898,26.687687
2.48,9.694916,0.005314195,1.0626888,0.0,1.0021029,0.9917087,0.06103441,1.0626888,0.9325182,1.0,0.96220136,396.68347,24.413765
2.5,9.014008,0.0050785393,1.0626888,0.0,1.0034013,0.9780984,0.06106957,1.0626888,0.9325182,1.0,0.9646616,391.23935,24.427828
2.52,8.463501,0.0048898854,1.0626888,0.0,1.003418,0.95765275,0.06680566,1.0626888,0.9325182,1.0,0.96631235,383.0611,26.722263
2.54,8.060272,0.0047668032,1.0626888,0.0,1.0023654,0.9309021,0.07735154,1.0626888,0.9325182,1.0,0.96730256,372.36084,30.940617
2.56,7.82016,0.0047254404,1.0626888,0.0,1.0005924,0.8992889,0.09112902,1.0626888,0.9325182,1.0,0.9678502,359.71555,36.451607
2.58,7.7589417,0.004776993,1.0626888,0.0,0.998488,0.8650601,0.106260344,1.0626888,0.9325182,1.0,0.9681633,346.02405,42.50414
2.6,7.891876,0.0049256906,1.0626888,0.0,0.996384,0.83093,0.12101154,1.0626888,0.9325182,1.0,0.9683782,332.372,48.404617
2.62,8.232178,0.0051678787,1.0626888,0.0,0.9944896,0.7996335,0.13412371,1.0626888,0.9325182,1.0,0.9685306,319.8534,53.649487
2.64,8.789001,0.005492385,1.0626888,0.0,0.9928805,0.7735157,0.14492314,1.0626888,0.9325182,1.0,0.9685702,309.40628,57.969254
2.66,9.564484,0.0058819638,1.0626888,0.0,0.99153686,0.7542533,0.15322395,1.0626888,0.9325182,1.0,0.96840435,301.70132,61.289577
2.68,10.551819,0.006315381,1.0626888,0.0,0.99040246,0.7427633,0.15911324,1.0626888,0.9325182,1.0,0.9679512,297.10532,63.645298
2.7,11.733948,0.006769618,1.0626888,0.0,0.9894319,0.73926306,0.16275766,1.0626888,0.9325182,1.0,0.96717185,295.70523,65.103065
2.72,13.083649,0.0072217756,1.0626888,0.0,0.98859775,0.74345225,0.1643271,1.0626888,0.9325182,1.0,0.96606237,297.3809,65.73084
2.74,14.564301,0.0076503726,1.0626888,0.0,0.987856,0.7547604,0.16404688,1.0626888,0.9325182,1.0,0.96460366,301.90414,65.61875
2.76,16.131989,0.008035927,1.0626888,0.0,0.98709255,0.77256846,0.16231737,1.0626888,0.9325182,1.0,0.96269673,309.02737,64.92695
2.78,17.73764,0.008360947,1.0626888,0.0,0.986095,0.7963475,0.15977526,1.0626888,0.9325182,1.0,0.9601267,318.539,63.910103
2.8,19.328827,0.008609607,1.0626888,0.0,0.9845764,0.82567716,0.15721321,1.0626888,0.9325182,1.0,0.9565873,330.27087,62.885284
2.82,20.851318,0.008767485,1.0626888,0.0,0.98225564,0.8601187,0.15536669,1.0626888,0.9325182,1.0,0.95177066,344.0475,62.146675
2.84,22.249939,0.008821733,1.0626888,0.0,0.9789599,0.8990097,0.15466455,1.0626888,0.9325182,1.0,0.9454901,359.60388,61.865818
2.86,23.46939,0.00876186,1.0626888,0.0,0.97470754,0.9412315,0.15508398,1.0626888,0.9325182,1.0,0.9377908,376.49258,62.033592
2.88,24.454895,0.008581114,1.0626888,0.0,0.96973354,0.9850857,0.15619543,1.0626888,0.9325182,1.0,0.92900354,394.0343,62.478172
2.9,25.154572,0.008278089,1.0626888,0.0,0.9644612,1.0283201,0.15735608,1.0626888,0.9325182,1.0,0.9197351,411.32803,62.942432
2.92,25.521729,0.007858119,1.0626888,0.0,0.95943075,1.0683204,0.1579543,1.0626888,0.9325182,1.0,0.9107968,427.32816,63.18172
2.94,25.518707,0.0073340014,1.0626888,0.0,0.95521647,1.1024239,0.1575714,1.0626888,0.9325182,1.0,0.90309596,440.96957,63.02856
2.96,25.120605,0.0067257797,1.0626888,0.0,0.95235014,1.1282554,0.15600684,1.0626888,0.9325182,1.0,0.89750886,451.30215,62.402737
2.98,24.31839,0.0060596135,1.0626888,0.0,0.9512593,1.1440109,0.15318501,1.0626888,0.9325182,1.0,0.89475846,457.60437,61.274002
