Time,Rotor Angle,Rotor Speed,EQ' Volts, ED' Volts,Term Volts,Elec Power Re,Elec Pwr Im,Fld Volts,Mech Power, Satn Factor, Air Gap Volts,Elec MW,Elec MVAr
0.0,28.30183,0.0,1.045981,0.0,0.99964833,0.67577773,0.08824742,1.045981,0.67674875,1.0,0.9806784,405.46664,52.948452
0.02,28.30216,3.4529926E-6,1.045981,0.0,0.99964774,0.67577934,0.08824887,1.045981,0.67674875,1.0,0.9806777,405.4676,52.94932
0.04,28.303461,6.1597175E-6,1.045981,0.0,0.9996454,0.6757858,0.08825479,1.045981,0.67674875,1.0,0.980675,405.47147,52.952873
0.06,28.305609,8.8066345E-6,1.045981,0.0,0.9996416,0.6757967,0.088264585,1.045981,0.67674875,1.0,0.98067045,405.47803,52.95875
0.08,28.30855,1.1381698E-5,1.045981,0.0,0.99963635,0.6758119,0.08827792,1.045981,0.67674875,1.0,0.98066425,405.48712,52.96675
0.1,28.312222,1.3874053E-5,1.045981,0.0,0.9441623,0.48523065,0.28448656,1.045981,0.67674875,1.0,0.93384916,291.1384,170.69194
0.12,28.322327,5.5890507E-4,1.045981,0.0,0.9441621,0.48500594,0.28452078,1.045981,0.67674875,1.0,0.93385845,291.00357,170.71246
0.14,28.355915,0.0010975036,1.045981,0.0,0.944181,0.48382482,0.28464407,1.045981,0.67674875,1.0,0.933928,290.2949,170.78644
0.16,28.412205,0.0016324698,1.045981,0.0,0.9442136,0.48171118,0.2848671,1.045981,0.67674875,1.0,0.93405086,289.0267,170.92026
0.18,28.489975,0.0021664833,1.045981,0.0,0.9442498,0.47870818,0.2852096,1.045981,0.67674875,1.0,0.9342144,287.2249,171.12576
0.2,28.58755,0.002702048,1.045981,0.0,0.9442761,0.47487885,0.28569734,1.045981,0.67674875,1.0,0.9344017,284.9273,171.41841
0.22,28.702911,0.003241438,1.045981,0.0,0.9442766,0.47030705,0.2863592,1.045981,0.67674875,1.0,0.93459237,282.18423,171.81552
0.24,28.833744,0.0037866419,1.045981,0.0,0.9442349,0.46509698,0.28722247,1.045981,0.67674875,1.0,0.93476474,279.0582,172.33348
0.26,28.977592,0.004339309,1.045981,0.0,0.94413495,0.45937225,0.2883114,1.045981,0.67674875,1.0,0.93489665,275.62335,172.98683
0.28,29.131905,0.004900701,1.045981,0.0,0.9439627,0.45327398,0.28964287,1.045981,0.67674875,1.0,0.9349675,271.9644,173.78572
0.3,29.294159,0.0054716473,1.045981,0.0,0.9437063,0.4469578,0.29122585,1.045981,0.67674875,1.0,0.9349589,268.17468,174.7355
0.32,29.461973,0.0060525155,1.045981,0.0,0.94335717,0.4405895,0.29306018,1.045981,0.67674875,1.0,0.9348552,264.3537,175.8361
0.34,29.633144,0.0066431914,1.045981,0.0,0.94291013,0.43434,0.29513752,1.045981,0.67674875,1.0,0.9346447,260.604,177.08252
0.36,29.805742,0.0072430745,1.045981,0.0,0.9423625,0.42838013,0.29744175,1.045981,0.67674875,1.0,0.93431866,257.02808,178.46506
0.38,29.978065,0.007851089,1.045981,0.0,0.94171476,0.42287436,0.29995167,1.045981,0.67674875,1.0,0.9338718,253.72461,179.97101
0.4,30.148685,0.008465718,1.045981,0.0,0.9999402,0.5477262,0.11016648,1.045981,0.67674875,1.0,0.987523,328.63574,66.09989
0.42,30.30016,0.008721594,1.045981,0.0,0.99889034,0.5360123,0.115300104,1.045981,0.67674875,1.0,0.9869891,321.60736,69.18006
0.44,30.382774,0.009004322,1.045981,0.0,0.99802005,0.5283725,0.11920445,1.045981,0.67674875,1.0,0.9864474,317.02353,71.52267
0.46,30.397018,0.009301737,1.045981,0.0,0.9974605,0.5250133,0.121467374,1.045981,0.67674875,1.0,0.98602885,315.008,72.880424
0.48,30.345623,0.009601398,1.045981,0.0,0.9972824,0.52595836,0.12187866,1.045981,0.67674875,1.0,0.9858073,315.575,73.1272
0.5,30.233051,0.0098910825,1.045981,0.0,0.99749315,0.5310862,0.12043224,1.045981,0.67674875,1.0,0.98579437,318.65173,72.259346
0.52,30.065388,0.010159179,1.045981,0.0,0.99803734,0.5401476,0.11732062,1.045981,0.67674875,1.0,0.9859402,324.08856,70.39237
0.54,29.850288,0.0103950435,1.045981,0.0,0.99880165,0.5527603,0.112926684,1.045981,0.67674875,1.0,0.9861392,331.6562,67.75601
0.56,29.597107,0.010589379,1.045981,0.0,0.9996244,0.56838804,0.1078051,1.045981,0.67674875,1.0,0.98624194,341.03284,64.68306
0.58,29.317001,0.010734667,1.045981,0.0,1.0003121,0.5863221,0.10264032,1.045981,0.67674875,1.0,0.9860756,351.79327,61.584194
0.6,29.022919,0.010825639,1.045981,0.0,1.0006676,0.60568726,0.09816925,1.045981,0.67674875,1.0,0.9854732,363.41235,58.90155
0.62,28.729324,0.010859686,1.045981,0.0,1.0005249,0.62549496,0.0950645,1.045981,0.67674875,1.0,0.98430985,375.29697,57.0387
0.64,28.451485,0.010837082,1.045981,0.0,0.99978614,0.6447522,0.093804024,1.045981,0.67674875,1.0,0.98253536,386.85132,56.282413
0.66,28.204376,0.010760846,1.045981,0.0,0.9984461,0.6626053,0.09456221,1.045981,0.67674875,1.0,0.9801929,397.56317,56.737328
0.68,28.001465,0.01063621,1.045981,0.0,0.99659634,0.6784799,0.097171485,1.045981,0.67674875,1.0,0.9774132,407.08795,58.30289
0.7,27.853424,0.010469718,1.045981,0.0,0.9944028,0.6921556,0.1011729,1.045981,0.67674875,1.0,0.9743857,415.29337,60.70374
0.72,27.767181,0.0102681955,1.045981,0.0,0.99206734,0.70374763,0.105938874,1.045981,0.67674875,1.0,0.9713171,422.24857,63.563324
0.74,27.745499,0.010037856,1.045981,0.0,0.9897876,0.71360046,0.110812925,1.045981,0.67674875,1.0,0.9683956,428.16028,66.487755
0.76,27.78695,0.009783757,1.045981,0.0,0.9877303,0.72214264,0.11522156,1.045981,0.67674875,1.0,0.9657706,433.28558,69.132935
0.78,27.886314,0.009509683,1.045981,0.0,0.9860212,0.7297427,0.11872948,1.045981,0.67674875,1.0,0.9635517,437.8456,71.237686
0.8,28.035133,0.009218416,1.045981,0.0,0.98474777,0.73660886,0.12105118,1.045981,0.67674875,1.0,0.96181786,441.96533,72.63071
0.82,28.222298,0.008912258,1.045981,0.0,0.98396504,0.7427298,0.1220416,1.045981,0.67674875,1.0,0.960629,445.63788,73.22496
0.84,28.434631,0.008593673,1.045981,0.0,0.98370016,0.74786514,0.1216899,1.045981,0.67674875,1.0,0.9600297,448.7191,73.01394
0.86,28.65738,0.008265929,1.045981,0.0,0.98394763,0.7515729,0.12012048,1.045981,0.67674875,1.0,0.96004516,450.94376,72.07229
0.88,28.874832,0.007933614,1.045981,0.0,0.98466337,0.75328445,0.11759677,1.045981,0.67674875,1.0,0.96066844,451.97067,70.55806
0.9,29.070908,0.007602899,1.045981,0.0,0.98576075,0.75242144,0.11450418,1.045981,0.67674875,1.0,0.96184886,451.45285,68.70251
0.92,29.229874,0.0072814454,1.045981,0.0,0.98711747,0.7485408,0.11129729,1.045981,0.67674875,1.0,0.9634878,449.12448,66.77837
0.94,29.337051,0.006977894,1.045981,0.0,0.9885956,0.74146897,0.108408,1.045981,0.67674875,1.0,0.9654512,444.88138,65.0448
0.96,29.380127,0.006701014,1.045981,0.0,0.9900728,0.73137957,0.10614171,1.045981,0.67674875,1.0,0.96759564,438.82773,63.685024
0.98,29.3499,0.0064587113,1.045981,0.0,0.9914709,0.71877265,0.10459954,1.045981,0.67674875,1.0,0.9698018,431.26358,62.759727
1.0,29.241302,0.0062571736,1.045981,0.0,0.99277014,0.70436543,0.10366325,1.045981,0.67674875,1.0,0.9719981,422.61926,62.197952
1.02,29.05391,0.0061003873,1.045981,0.0,0.9940046,0.6889363,0.10304981,1.045981,0.67674875,1.0,0.97416705,413.3618,61.829884
1.04,28.792114,0.0059901,1.045981,0.0,0.9952394,0.67318624,0.10240808,1.045981,0.67674875,1.0,0.976331,403.91174,61.444847
1.06,28.465103,0.0059261452,1.045981,0.0,0.99654114,0.65765744,0.10142168,1.045981,0.67674875,1.0,0.97852707,394.59445,60.853004
1.08,28.086166,0.0059069395,1.045981,0.0,0.9979539,0.64272225,0.09988642,1.045981,0.67674875,1.0,0.9807806,385.63336,59.93185
1.1,27.672256,0.005929964,1.045981,0.0,0.9994817,0.628622,0.097750165,1.045981,0.67674875,1.0,0.98308533,377.1732,58.650097
1.12,27.24327,0.005992115,1.045981,0.0,1.0010823,0.61552286,0.09512273,1.045981,0.67674875,1.0,0.98539305,369.31372,57.07364
1.14,26.820847,0.006089882,1.045981,0.0,1.0026691,0.6035678,0.092261344,1.045981,0.67674875,1.0,0.9876123,362.14066,55.356808
1.16,26.42781,0.0062193973,1.045981,0.0,1.0041188,0.5929033,0.08954488,1.045981,0.67674875,1.0,0.98961455,355.742,53.726925
1.18,26.086792,0.006376429,1.045981,0.0,1.0052843,0.58367586,0.087432526,1.045981,0.67674875,1.0,0.9912477,350.2055,52.459515
1.2,25.81903,0.0065564006,1.045981,0.0,1.0060147,0.5760059,0.086404115,1.045981,0.67674875,1.0,0.99235713,345.60352,51.84247
1.22,25.643005,0.006754493,1.045981,0.0,1.0061809,0.56995606,0.08687818,1.045981,0.67674875,1.0,0.99281293,341.97363,52.126907
1.24,25.573349,0.0069658314,1.045981,0.0,1.0057051,0.5655145,0.08911633,1.045981,0.67674875,1.0,0.99253976,339.30872,53.469795
1.26,25.619736,0.007185693,1.045981,0.0,1.0045862,0.56261104,0.09313503,1.045981,0.67674875,1.0,0.99154186,337.56662,55.881016
1.28,25.786057,0.007409636,1.045981,0.0,1.0029114,0.5611699,0.09866049,1.045981,0.67674875,1.0,0.98991233,336.70197,59.196297
1.3,26.07042,0.007633467,1.045981,0.0,1.0008491,0.5611749,0.10514903,1.045981,0.67674875,1.0,0.98782265,336.70496,63.089417
1.32,26.465271,0.007853026,1.045981,0.0,0.9986191,0.5627197,0.11188169,1.045981,0.67674875,1.0,0.98549056,337.63184,67.12901
1.34,26.958038,0.008063859,1.045981,0.0,0.99645025,0.5660083,0.11810028,1.045981,0.67674875,1.0,0.9831376,339.605,70.86017
1.36,27.531906,0.008260944,1.045981,0.0,0.9945409,0.5713034,0.12314419,1.045981,0.67674875,1.0,0.9809499,342.78204,73.88651
1.38,28.166687,0.00843858,1.045981,0.0,0.99302787,0.578843,0.12655021,1.045981,0.67674875,1.0,0.97905153,347.3058,75.93013
1.4,28.839645,0.008590541,1.045981,0.0,0.99197453,0.58874565,0.12809871,1.045981,0.67674875,1.0,0.9774968,353.2474,76.85923
1.42,29.525986,0.0087104775,1.045981,0.0,0.9913742,0.6009396,0.12781334,1.045981,0.67674875,1.0,0.9762765,360.56375,76.688
1.44,30.199554,0.008792494,1.045981,0.0,0.9911612,0.61512464,0.12593149,1.045981,0.67674875,1.0,0.9753331,369.0748,75.55889
1.46,30.833694,0.008831803,1.045981,0.0,0.9912269,0.6307725,0.122862436,1.045981,0.67674875,1.0,0.9745774,378.46347,73.71746
1.48,31.401932,0.008825326,1.045981,0.0,0.99143493,0.6471694,0.11914115,1.045981,0.67674875,1.0,0.9739045,388.30164,71.48469
1.5,31.879211,0.008772165,1.045981,0.0,0.99163425,0.6634901,0.115380704,1.045981,0.67674875,1.0,0.9732037,398.09406,69.228424
1.52,32.243454,0.008673801,1.045981,0.0,0.9916734,0.67890286,0.112211026,1.045981,0.67674875,1.0,0.9723688,407.3417,67.326614
1.54,32.477005,0.0085340105,1.045981,0.0,0.9914183,0.6926846,0.11020031,1.045981,0.67674875,1.0,0.9713086,415.61075,66.120186
1.56,32.567993,0.008358434,1.045981,0.0,0.9907751,0.7043289,0.10975681,1.045981,0.67674875,1.0,0.9699625,422.59735,65.85409
1.58,32.51126,0.008153879,1.045981,0.0,0.98971534,0.7136137,0.11102979,1.045981,0.67674875,1.0,0.96832085,428.1682,66.617874
1.6,32.30867,0.007927473,1.045981,0.0,0.9882941,0.72061104,0.11384636,1.045981,0.67674875,1.0,0.9664413,432.3666,68.307816
1.62,31.968735,0.0076858522,1.045981,0.0,0.98665494,0.7256334,0.11771291,1.045981,0.67674875,1.0,0.9644552,435.38004,70.62775
1.64,31.505844,0.007434548,1.045981,0.0,0.9850113,0.72913224,0.12189449,1.045981,0.67674875,1.0,0.9625561,437.47934,73.136696
1.66,30.939209,0.0071776877,1.045981,0.0,0.9836118,0.7315849,0.12554984,1.045981,0.67674875,1.0,0.96097064,438.95096,75.3299
1.68,30.29181,0.006918021,1.045981,0.0,0.98269737,0.7333956,0.1278834,1.045981,0.67674875,1.0,0.95992106,440.03735,76.73004
1.7,29.589111,0.0066571995,1.045981,0.0,0.98245996,0.7348257,0.12827772,1.045981,0.67674875,1.0,0.95958793,440.89542,76.96663
1.72,28.858643,0.0063962266,1.045981,0.0,0.98301077,0.7359653,0.1263848,1.045981,0.67674875,1.0,0.9600801,441.5792,75.83088
1.74,28.128723,0.0061359643,1.045981,0.0,0.98436433,0.73672533,0.122173205,1.045981,0.67674875,1.0,0.96141803,442.0352,73.303925
1.76,27.427979,0.005877635,1.045981,0.0,0.9864334,0.73685503,0.115938224,1.045981,0.67674875,1.0,0.96352816,442.113,69.562935
1.78,26.784088,0.0056232614,1.045981,0.0,0.9890391,0.73596835,0.10827403,1.045981,0.67674875,1.0,0.9662513,441.58102,64.96442
1.8,26.222351,0.0053760097,1.045981,0.0,0.99193186,0.7335875,0.10001328,1.045981,0.67674875,1.0,0.96936053,440.1525,60.00797
1.82,25.764526,0.005140399,1.045981,0.0,0.99482465,0.7291978,0.09212284,1.045981,0.67674875,1.0,0.97259206,437.51868,55.273705
1.84,25.426666,0.0049223388,1.045981,0.0,0.9974346,0.72232175,0.08556485,1.045981,0.67674875,1.0,0.9756824,433.39304,51.338913
1.86,25.218353,0.0047289375,1.045981,0.0,0.99952763,0.7126109,0.08113551,1.045981,0.67674875,1.0,0.9784079,427.56653,48.681305
1.88,25.141235,0.0045680506,1.045981,0.0,1.0009552,0.6999445,0.07931826,1.045981,0.67674875,1.0,0.980617,419.9667,47.590958
1.9,25.190033,0.004447555,1.045981,0.0,1.0016747,0.68450975,0.08019718,1.045981,0.67674875,1.0,0.9822466,410.70584,48.118305
1.92,25.352417,0.004374441,1.045981,0.0,1.0017462,0.6668324,0.08345964,1.045981,0.67674875,1.0,0.98331916,400.09943,50.075783
1.94,25.611572,0.0043538804,1.045981,0.0,1.0013083,0.6477285,0.08849007,1.045981,0.67674875,1.0,0.9839235,388.63712,53.09404
1.96,25.947632,0.004388492,1.045981,0.0,1.0005426,0.6281937,0.09451617,1.045981,0.67674875,1.0,0.9841865,376.9162,56.709705
1.98,26.3396,0.004477983,1.045981,0.0,0.99964035,0.6092429,0.10075239,1.045981,0.67674875,1.0,0.98424953,365.54575,60.451435
2.0,26.766632,0.0046192403,1.045981,0.0,0.99877685,0.591764,0.10650649,1.045981,0.67674875,1.0,0.98425025,355.05838,63.903893
2.02,27.208832,0.004806823,1.045981,0.0,0.9980989,0.5764087,0.11123492,1.045981,0.67674875,1.0,0.98431206,345.8452,66.74095
2.04,27.647858,0.005033712,1.045981,0.0,0.99771684,0.5635443,0.114562236,1.045981,0.67674875,1.0,0.9845376,338.12656,68.73734
2.06,28.06665,0.0052921446,1.045981,0.0,0.9977012,0.5532627,0.11628335,1.045981,0.67674875,1.0,0.98500127,331.95764,69.77001
2.08,28.449768,0.0055743773,1.045981,0.0,0.9980753,0.545439,0.1163665,1.045981,0.67674875,1.0,0.98573893,327.2634,69.8199
2.1,28.783691,0.005873239,1.045981,0.0,0.998808,0.5398229,0.11496188,1.045981,0.67674875,1.0,0.9867349,323.89374,68.97713
2.12,29.057373,0.0061824075,1.045981,0.0,0.99980795,0.5361434,0.11240415,1.045981,0.67674875,1.0,0.9879119,321.68607,67.44249
2.14,29.26294,0.006496383,1.045981,0.0,1.0009259,0.5342051,0.109193906,1.045981,0.67674875,1.0,0.98912954,320.52304,65.51634
2.16,29.396393,0.0068102083,1.045981,0.0,1.0019717,0.53395045,0.10594082,1.045981,0.67674875,1.0,0.99019915,320.37027,63.56449
2.18,29.458221,0.0071190484,1.045981,0.0,1.0027456,0.5354793,0.1032632,1.045981,0.67674875,1.0,0.99091434,321.2876,61.95792
2.2,29.45288,0.007417755,1.045981,0.0,1.0030788,0.5390116,0.10166181,1.045981,0.67674875,1.0,0.99109405,323.40695,60.997086
2.22,29.388397,0.0077005774,1.045981,0.0,1.0028707,0.5448165,0.10140816,1.045981,0.67674875,1.0,0.9906223,326.8899,60.8449
2.24,29.27478,0.007961093,1.045981,0.0,1.0021102,0.553125,0.102484226,1.045981,0.67674875,1.0,0.98947334,331.875,61.490536
2.26,29.123016,0.00819238,1.045981,0.0,1.0008751,0.56406003,0.104596496,1.045981,0.67674875,1.0,0.98771363,338.436,62.757896
2.28,28.943848,0.008387366,1.045981,0.0,0.99930936,0.57759655,0.107255645,1.045981,0.67674875,1.0,0.9854822,346.55792,64.353386
2.3,28.747467,0.008539265,1.045981,0.0,0.99758995,0.5935559,0.109895565,1.045981,0.67674875,1.0,0.9829569,356.13354,65.93734
2.32,28.543701,0.008641992,1.045981,0.0,0.99588895,0.6116259,0.111995175,1.045981,0.67674875,1.0,0.98031723,366.97556,67.197105
2.34,28.342499,0.008690519,1.045981,0.0,0.9943401,0.63139206,0.113182284,1.045981,0.67674875,1.0,0.9777107,378.83524,67.90937
2.36,28.154785,0.008681129,1.045981,0.0,0.9930156,0.6523628,0.11330338,1.045981,0.67674875,1.0,0.9752289,391.4177,67.982025
2.38,27.992615,0.0086116,1.045981,0.0,0.9919151,0.67398536,0.11245303,1.045981,0.67674875,1.0,0.97289664,404.3912,67.47182
2.4,27.86914,0.008481358,1.045981,0.0,0.9909701,0.69564843,0.11095918,1.045981,0.67674875,1.0,0.9706767,417.38907,66.57551
2.42,27.797455,0.008291626,1.045981,0.0,0.99006397,0.7166721,0.10932364,1.045981,0.67674875,1.0,0.96849144,430.00327,65.594185
2.44,27.789215,0.008045599,1.045981,0.0,0.9890655,0.73629665,0.10812237,1.045981,0.67674875,1.0,0.9662578,441.77798,64.87342
2.46,27.852692,0.007748643,1.045981,0.0,0.98787004,0.75369334,0.10787982,1.045981,0.67674875,1.0,0.9639286,452.216,64.72789
2.48,27.99112,0.0074084336,1.045981,0.0,0.986436,0.76802015,0.10894282,1.045981,0.67674875,1.0,0.96152675,460.8121,65.36569
2.5,28.201813,0.007034885,1.045981,0.0,0.984809,0.77853787,0.11138251,1.045981,0.67674875,1.0,0.95916027,467.1227,66.829506
2.52,28.476105,0.0066397246,1.045981,0.0,0.98312044,0.78475666,0.11495759,1.045981,0.67674875,1.0,0.9570087,470.854,68.974556
2.54,28.800537,0.006235656,1.045981,0.0,0.9815611,0.7865572,0.11915916,1.045981,0.67674875,1.0,0.9552851,471.93433,71.4955
2.56,29.158325,0.0058352505,1.045981,0.0,0.98033637,0.7842195,0.12333283,1.045981,0.67674875,1.0,0.9541849,470.5317,73.999695
2.58,29.531433,0.0054498594,1.045981,0.0,0.979618,0.7783329,0.12683572,1.045981,0.67674875,1.0,0.95384353,466.99973,76.10143
2.6,29.901855,0.005088861,1.045981,0.0,0.9795134,0.7696216,0.12917145,1.045981,0.67674875,1.0,0.95431745,461.77298,77.50287
2.62,30.25241,0.0047594467,1.045981,0.0,0.980057,0.75875735,0.1300589,1.045981,0.67674875,1.0,0.9555903,455.25443,78.03534
2.64,30.567078,0.0044669076,1.045981,0.0,0.98122615,0.7462264,0.12942147,1.045981,0.67674875,1.0,0.95759976,447.7358,77.652885
2.66,30.830627,0.0042152423,1.045981,0.0,0.9829671,0.73228073,0.12732305,1.045981,0.67674875,1.0,0.9602671,439.36844,76.39383
2.68,31.028381,0.004007836,1.045981,0.0,0.98521864,0.71695966,0.12389342,1.045981,0.67674875,1.0,0.96352,430.17578,74.33605
2.7,31.14618,0.0038480281,1.045981,0.0,0.9879201,0.7001638,0.11928647,1.045981,0.67674875,1.0,0.9672948,420.09827,71.571884
2.72,31.171417,0.0037394455,1.045981,0.0,0.991,0.6817448,0.1136962,1.045981,0.67674875,1.0,0.97151834,409.04688,68.21772
2.74,31.09314,0.0036860702,1.045981,0.0,0.9943497,0.6616001,0.10741885,1.045981,0.67674875,1.0,0.976076,396.96008,64.45131
2.76,30.904144,0.0036920323,1.045981,0.0,0.9977987,0.63977605,0.10092046,1.045981,0.67674875,1.0,0.9807812,383.86563,60.552277
2.78,30.601898,0.0037611108,1.045981,0.0,1.0011103,0.6165659,0.09484787,1.045981,0.67674875,1.0,0.9853679,369.93954,56.908722
2.8,30.189575,0.0038959763,1.045981,0.0,1.0040095,0.59258264,0.089945175,1.045981,0.67674875,1.0,0.98951936,355.5496,53.967106
2.82,29.676025,0.004097276,1.045981,0.0,1.0062399,0.56876284,0.08688766,1.045981,0.67674875,1.0,0.99292886,341.2577,52.132595
2.84,29.075195,0.0043627964,1.045981,0.0,1.0076272,0.5462661,0.086091846,1.045981,0.67674875,1.0,0.99537194,327.75964,51.65511
2.86,28.405151,0.0046869884,1.045981,0.0,1.008125,0.52629095,0.0875882,1.045981,0.67674875,1.0,0.99676025,315.77457,52.552917
2.88,27.685669,0.005061059,1.045981,0.0,1.0078219,0.50985885,0.091005184,1.045981,0.67674875,1.0,0.9971563,305.9153,54.60311
2.9,26.937805,0.005473651,1.045981,0.0,1.0069159,0.49765873,0.095665865,1.045981,0.67674875,1.0,0.99674803,298.59525,57.399517
2.92,26.182556,0.0059118844,1.045981,0.0,1.0056635,0.48999622,0.10074667,1.045981,0.67674875,1.0,0.9957954,293.99774,60.448
2.94,25.441284,0.00636244,1.045981,0.0,1.0043279,0.4868552,0.10543465,1.045981,0.67674875,1.0,0.9945735,292.11313,63.260788
2.96,24.735992,0.006812395,1.045981,0.0,1.0031357,0.4880333,0.1090496,1.045981,0.67674875,1.0,0.9933218,292.81998,65.42976
2.98,24.089691,0.007249639,1.045981,0.0,1.0022467,0.49329022,0.11111605,1.045981,0.67674875,1.0,0.9922103,295.97412,66.66963
